# Pulseq sequence file
# Created by MATLAB mr toolbox

[VERSION]
major 1
minor 4
revision 1

[DEFINITIONS]
ADC_DwellTime 9e-06 
AdcRasterTime 1e-07 
BW 555.555556 
BlockDurationRaster 1e-05 
Developer Jinyuan Zhang 
Dummy 40 
ESP 0.00102 
FOV 0.2 0.2 0.002 
FlipAngle 10 
GradientRasterTime 1e-05 
MatrixSize 200 200 1 
Name s6_1p0 
RadiofrequencyRasterTime 1e-06 
ReadoutMode Separate 
SliceThickness 0.002 
TE 0.00306 0.00408 0.0051 0.00612 0.00714 0.00816 
TR 0.025 
TotalDuration 31 

# Format of blocks:
# NUM DUR RF  GX  GY  GZ  ADC  EXT
[BLOCKS]
   1   0   0   0   0   0  0  1
   2 228   1   0   0   1  0  0
   3  94   0   4   2   3  0  0
   4 2178   0   5   7   6  0  0
   5 228   2   0   0   1  0  0
   6  94   0   4   2   3  0  0
   7 2178   0   5   7   6  0  0
   8 228   3   0   0   1  0  0
   9  94   0   4   2   3  0  0
  10 2178   0   5   7   6  0  0
  11 228   4   0   0   1  0  0
  12  94   0   4   2   3  0  0
  13 2178   0   5   7   6  0  0
  14 228   5   0   0   1  0  0
  15  94   0   4   2   3  0  0
  16 2178   0   5   7   6  0  0
  17 228   6   0   0   1  0  0
  18  94   0   4   2   3  0  0
  19 2178   0   5   7   6  0  0
  20 228   7   0   0   1  0  0
  21  94   0   4   2   3  0  0
  22 2178   0   5   7   6  0  0
  23 228   8   0   0   1  0  0
  24  94   0   4   2   3  0  0
  25 2178   0   5   7   6  0  0
  26 228   9   0   0   1  0  0
  27  94   0   4   2   3  0  0
  28 2178   0   5   7   6  0  0
  29 228  10   0   0   1  0  0
  30  94   0   4   2   3  0  0
  31 2178   0   5   7   6  0  0
  32 228   6   0   0   1  0  0
  33  94   0   4   2   3  0  0
  34 2178   0   5   7   6  0  0
  35 228  11   0   0   1  0  0
  36  94   0   4   2   3  0  0
  37 2178   0   5   7   6  0  0
  38 228  12   0   0   1  0  0
  39  94   0   4   2   3  0  0
  40 2178   0   5   7   6  0  0
  41 228  13   0   0   1  0  0
  42  94   0   4   2   3  0  0
  43 2178   0   5   7   6  0  0
  44 228  14   0   0   1  0  0
  45  94   0   4   2   3  0  0
  46 2178   0   5   7   6  0  0
  47 228   1   0   0   1  0  0
  48  94   0   4   2   3  0  0
  49 2178   0   5   7   6  0  0
  50 228  15   0   0   1  0  0
  51  94   0   4   2   3  0  0
  52 2178   0   5   7   6  0  0
  53 228  16   0   0   1  0  0
  54  94   0   4   2   3  0  0
  55 2178   0   5   7   6  0  0
  56 228  13   0   0   1  0  0
  57  94   0   4   2   3  0  0
  58 2178   0   5   7   6  0  0
  59 228  17   0   0   1  0  0
  60  94   0   4   2   3  0  0
  61 2178   0   5   7   6  0  0
  62 228   5   0   0   1  0  0
  63  94   0   4   2   3  0  0
  64 2178   0   5   7   6  0  0
  65 228  18   0   0   1  0  0
  66  94   0   4   2   3  0  0
  67 2178   0   5   7   6  0  0
  68 228  19   0   0   1  0  0
  69  94   0   4   2   3  0  0
  70 2178   0   5   7   6  0  0
  71 228   9   0   0   1  0  0
  72  94   0   4   2   3  0  0
  73 2178   0   5   7   6  0  0
  74 228  20   0   0   1  0  0
  75  94   0   4   2   3  0  0
  76 2178   0   5   7   6  0  0
  77 228  10   0   0   1  0  0
  78  94   0   4   2   3  0  0
  79 2178   0   5   7   6  0  0
  80 228  18   0   0   1  0  0
  81  94   0   4   2   3  0  0
  82 2178   0   5   7   6  0  0
  83 228  21   0   0   1  0  0
  84  94   0   4   2   3  0  0
  85 2178   0   5   7   6  0  0
  86 228   4   0   0   1  0  0
  87  94   0   4   2   3  0  0
  88 2178   0   5   7   6  0  0
  89 228  22   0   0   1  0  0
  90  94   0   4   2   3  0  0
  91 2178   0   5   7   6  0  0
  92 228  14   0   0   1  0  0
  93  94   0   4   2   3  0  0
  94 2178   0   5   7   6  0  0
  95 228  15   0   0   1  0  0
  96  94   0   4   2   3  0  0
  97 2178   0   5   7   6  0  0
  98 228  23   0   0   1  0  0
  99  94   0   4   2   3  0  0
 100 2178   0   5   7   6  0  0
 101 228   2   0   0   1  0  0
 102  94   0   4   2   3  0  0
 103 2178   0   5   7   6  0  0
 104 228  22   0   0   1  0  0
 105  94   0   4   2   3  0  0
 106 2178   0   5   7   6  0  0
 107 228  17   0   0   1  0  0
 108  94   0   4   2   3  0  0
 109 2178   0   5   7   6  0  0
 110 228  11   0   0   1  0  0
 111  94   0   4   2   3  0  0
 112 2178   0   5   7   6  0  0
 113 228  24   0   0   1  0  0
 114  94   0   4   2   3  0  0
 115 2178   0   5   7   6  0  0
 116 228   7   0   0   1  0  0
 117  94   0   4   2   3  0  0
 118 2178   0   5   7   6  0  0
 119 228  20   0   0   1  0  0
 120  94   0   4   2   3  0  0
 121 2178   0   5   7   6  0  0
 122   0   0   0   0   0  0  2
 123 228  20   0   0   1  0  0
 124  94   0   4   8   3  0  0
 125 2178   0   5   9   6  1  0
 126   0   0   0   0   0  0  3
 127 228   7   0   0   1  0  0
 128  94   0   4  10   3  0  0
 129 2178   0   5  11   6  2  0
 130   0   0   0   0   0  0  3
 131 228  24   0   0   1  0  0
 132  94   0   4  12   3  0  0
 133 2178   0   5  13   6  3  0
 134   0   0   0   0   0  0  3
 135 228  11   0   0   1  0  0
 136  94   0   4  14   3  0  0
 137 2178   0   5  15   6  4  0
 138   0   0   0   0   0  0  3
 139 228  17   0   0   1  0  0
 140  94   0   4  16   3  0  0
 141 2178   0   5  17   6  5  0
 142   0   0   0   0   0  0  3
 143 228  22   0   0   1  0  0
 144  94   0   4  18   3  0  0
 145 2178   0   5  19   6  6  0
 146   0   0   0   0   0  0  3
 147 228   2   0   0   1  0  0
 148  94   0   4  20   3  0  0
 149 2178   0   5  21   6  7  0
 150   0   0   0   0   0  0  3
 151 228  23   0   0   1  0  0
 152  94   0   4  22   3  0  0
 153 2178   0   5  23   6  8  0
 154   0   0   0   0   0  0  3
 155 228  15   0   0   1  0  0
 156  94   0   4  24   3  0  0
 157 2178   0   5  25   6  9  0
 158   0   0   0   0   0  0  3
 159 228  14   0   0   1  0  0
 160  94   0   4  26   3  0  0
 161 2178   0   5  27   6 10  0
 162   0   0   0   0   0  0  3
 163 228  22   0   0   1  0  0
 164  94   0   4  28   3  0  0
 165 2178   0   5  29   6  6  0
 166   0   0   0   0   0  0  3
 167 228   4   0   0   1  0  0
 168  94   0   4  30   3  0  0
 169 2178   0   5  31   6 11  0
 170   0   0   0   0   0  0  3
 171 228  21   0   0   1  0  0
 172  94   0   4  32   3  0  0
 173 2178   0   5  33   6 12  0
 174   0   0   0   0   0  0  3
 175 228  18   0   0   1  0  0
 176  94   0   4  34   3  0  0
 177 2178   0   5  35   6 13  0
 178   0   0   0   0   0  0  3
 179 228  10   0   0   1  0  0
 180  94   0   4  36   3  0  0
 181 2178   0   5  37   6 14  0
 182   0   0   0   0   0  0  3
 183 228  20   0   0   1  0  0
 184  94   0   4  38   3  0  0
 185 2178   0   5  39   6  1  0
 186   0   0   0   0   0  0  3
 187 228   9   0   0   1  0  0
 188  94   0   4  40   3  0  0
 189 2178   0   5  41   6 15  0
 190   0   0   0   0   0  0  3
 191 228  19   0   0   1  0  0
 192  94   0   4  42   3  0  0
 193 2178   0   5  43   6 16  0
 194   0   0   0   0   0  0  3
 195 228  18   0   0   1  0  0
 196  94   0   4  44   3  0  0
 197 2178   0   5  45   6 13  0
 198   0   0   0   0   0  0  3
 199 228   5   0   0   1  0  0
 200  94   0   4  46   3  0  0
 201 2178   0   5  47   6 17  0
 202   0   0   0   0   0  0  3
 203 228  17   0   0   1  0  0
 204  94   0   4  48   3  0  0
 205 2178   0   5  49   6  5  0
 206   0   0   0   0   0  0  3
 207 228  13   0   0   1  0  0
 208  94   0   4  50   3  0  0
 209 2178   0   5  51   6 18  0
 210   0   0   0   0   0  0  3
 211 228  16   0   0   1  0  0
 212  94   0   4  52   3  0  0
 213 2178   0   5  53   6 19  0
 214   0   0   0   0   0  0  3
 215 228  15   0   0   1  0  0
 216  94   0   4  54   3  0  0
 217 2178   0   5  55   6  9  0
 218   0   0   0   0   0  0  3
 219 228   1   0   0   1  0  0
 220  94   0   4  56   3  0  0
 221 2178   0   5  57   6 20  0
 222   0   0   0   0   0  0  3
 223 228  14   0   0   1  0  0
 224  94   0   4  58   3  0  0
 225 2178   0   5  59   6 10  0
 226   0   0   0   0   0  0  3
 227 228  13   0   0   1  0  0
 228  94   0   4  60   3  0  0
 229 2178   0   5  61   6 18  0
 230   0   0   0   0   0  0  3
 231 228  12   0   0   1  0  0
 232  94   0   4  62   3  0  0
 233 2178   0   5  63   6 21  0
 234   0   0   0   0   0  0  3
 235 228  11   0   0   1  0  0
 236  94   0   4  64   3  0  0
 237 2178   0   5  65   6  4  0
 238   0   0   0   0   0  0  3
 239 228   6   0   0   1  0  0
 240  94   0   4  66   3  0  0
 241 2178   0   5  67   6 22  0
 242   0   0   0   0   0  0  3
 243 228  10   0   0   1  0  0
 244  94   0   4  68   3  0  0
 245 2178   0   5  69   6 14  0
 246   0   0   0   0   0  0  3
 247 228   9   0   0   1  0  0
 248  94   0   4  70   3  0  0
 249 2178   0   5  71   6 15  0
 250   0   0   0   0   0  0  3
 251 228   8   0   0   1  0  0
 252  94   0   4  72   3  0  0
 253 2178   0   5  73   6 23  0
 254   0   0   0   0   0  0  3
 255 228   7   0   0   1  0  0
 256  94   0   4  74   3  0  0
 257 2178   0   5  75   6  2  0
 258   0   0   0   0   0  0  3
 259 228   6   0   0   1  0  0
 260  94   0   4  76   3  0  0
 261 2178   0   5  77   6 22  0
 262   0   0   0   0   0  0  3
 263 228   5   0   0   1  0  0
 264  94   0   4  78   3  0  0
 265 2178   0   5  79   6 17  0
 266   0   0   0   0   0  0  3
 267 228   4   0   0   1  0  0
 268  94   0   4  80   3  0  0
 269 2178   0   5  81   6 11  0
 270   0   0   0   0   0  0  3
 271 228   3   0   0   1  0  0
 272  94   0   4  82   3  0  0
 273 2178   0   5  83   6 24  0
 274   0   0   0   0   0  0  3
 275 228   2   0   0   1  0  0
 276  94   0   4  84   3  0  0
 277 2178   0   5  85   6  7  0
 278   0   0   0   0   0  0  3
 279 228   1   0   0   1  0  0
 280  94   0   4  86   3  0  0
 281 2178   0   5  87   6 20  0
 282   0   0   0   0   0  0  3
 283 228   1   0   0   1  0  0
 284  94   0   4  88   3  0  0
 285 2178   0   5  89   6 20  0
 286   0   0   0   0   0  0  3
 287 228   2   0   0   1  0  0
 288  94   0   4  90   3  0  0
 289 2178   0   5  91   6  7  0
 290   0   0   0   0   0  0  3
 291 228   3   0   0   1  0  0
 292  94   0   4  92   3  0  0
 293 2178   0   5  93   6 24  0
 294   0   0   0   0   0  0  3
 295 228   4   0   0   1  0  0
 296  94   0   4  94   3  0  0
 297 2178   0   5  95   6 11  0
 298   0   0   0   0   0  0  3
 299 228   5   0   0   1  0  0
 300  94   0   4  96   3  0  0
 301 2178   0   5  97   6 17  0
 302   0   0   0   0   0  0  3
[RF]
1      55.8277 1 2 0 140 0 0
2      55.8277 1 2 0 140 0 2.04204
3      55.8277 1 2 0 140 0 6.12611
4      55.8277 1 2 0 140 0 5.96903
5      55.8277 1 2 0 140 0 1.5708
6      55.8277 1 2 0 140 0 5.49779
7      55.8277 1 2 0 140 0 5.18363
8      55.8277 1 2 0 140 0 0.628319
9      55.8277 1 2 0 140 0 4.39823
10      55.8277 1 2 0 140 0 3.92699
11      55.8277 1 2 0 140 0 2.82743
12      55.8277 1 2 0 140 0 2.19911
13      55.8277 1 2 0 140 0 3.61283
14      55.8277 1 2 0 140 0 0.785398
15      55.8277 1 2 0 140 0 1.25664
16      55.8277 1 2 0 140 0 4.55531
17      55.8277 1 2 0 140 0 4.71239
18      55.8277 1 2 0 140 0 0.471239
19      55.8277 1 2 0 140 0 1.41372
20      55.8277 1 2 0 140 0 3.14159
21      55.8277 1 2 0 140 0 5.34071
22      55.8277 1 2 0 140 0 2.35619
23      55.8277 1 2 0 140 0 3.76991
24      55.8277 1 2 0 140 0 2.98451

# Format of arbitrary gradients:
#   time_shape_id of 0 means default timing (stepping with grad_raster starting at 1/2 of grad_raster)
# id amplitude amp_shape_id time_shape_id delay
# ..      Hz/m       ..         ..          us
[GRADIENTS]
5  1.69312e+06 3 4 0

# Format of trapezoid gradients:
# id amplitude rise flat fall delay
# ..      Hz/m   us   us   us    us
[TRAP]
 1        1e+06 140 2000 140   0
 2            0  10  510  10   0
 3 -1.69841e+06 230  400 230   0
 4 -1.68459e+06 220   90 220 410
 6  1.69492e+06 230  950 230 1880
 7           -0  10  510  10 1880
 8 -1.51515e+06 200  130 200   0
 9  1.51515e+06 200  130 200 1880
10 -1.45588e+06 190  150 190   0
11  1.45588e+06 190  150 190 1880
12 -1.44118e+06 190  150 190   0
13  1.44118e+06 190  150 190 1880
14 -1.42647e+06 190  150 190   0
15  1.42647e+06 190  150 190 1880
16 -1.37143e+06 180  170 180   0
17  1.37143e+06 180  170 180 1880
18 -1.35714e+06 180  170 180   0
19  1.35714e+06 180  170 180 1880
20 -1.34286e+06 180  170 180   0
21  1.34286e+06 180  170 180 1880
22 -1.29167e+06 170  190 170   0
23  1.29167e+06 170  190 170 1880
24 -1.27778e+06 170  190 170   0
25  1.27778e+06 170  190 170 1880
26 -1.26389e+06 170  190 170   0
27  1.26389e+06 170  190 170 1880
28 -1.21622e+06 160  210 160   0
29  1.21622e+06 160  210 160 1880
30  -1.2027e+06 160  210 160   0
31   1.2027e+06 160  210 160 1880
32 -1.18919e+06 160  210 160   0
33  1.18919e+06 160  210 160 1880
34 -1.14474e+06 150  230 150   0
35  1.14474e+06 150  230 150 1880
36 -1.13158e+06 150  230 150   0
37  1.13158e+06 150  230 150 1880
38 -1.11842e+06 150  230 150   0
39  1.11842e+06 150  230 150 1880
40 -1.10526e+06 150  230 150   0
41  1.10526e+06 150  230 150 1880
42  -1.0641e+06 140  250 140   0
43   1.0641e+06 140  250 140 1880
44 -1.05128e+06 140  250 140   0
45  1.05128e+06 140  250 140 1880
46 -1.03846e+06 140  250 140   0
47  1.03846e+06 140  250 140 1880
48 -1.02564e+06 140  250 140   0
49  1.02564e+06 140  250 140 1880
50      -987500 130  270 130   0
51       987500 130  270 130 1880
52      -975000 130  270 130   0
53       975000 130  270 130 1880
54      -962500 130  270 130   0
55       962500 130  270 130 1880
56      -950000 130  270 130   0
57       950000 130  270 130 1880
58      -914634 120  290 120   0
59       914634 120  290 120 1880
60      -902439 120  290 120   0
61       902439 120  290 120 1880
62      -890244 120  290 120   0
63       890244 120  290 120 1880
64      -878049 120  290 120   0
65       878049 120  290 120 1880
66      -865854 120  290 120   0
67       865854 120  290 120 1880
68      -833333 110  310 110   0
69       833333 110  310 110 1880
70      -821429 110  310 110   0
71       821429 110  310 110 1880
72      -809524 110  310 110   0
73       809524 110  310 110 1880
74      -797619 110  310 110   0
75       797619 110  310 110 1880
76      -785714 110  310 110   0
77       785714 110  310 110 1880
78      -755814 100  330 100   0
79       755814 100  330 100 1880
80      -744186 100  330 100   0
81       744186 100  330 100 1880
82      -732558 100  330 100   0
83       732558 100  330 100 1880
84      -720930 100  330 100   0
85       720930 100  330 100 1880
86      -709302 100  330 100   0
87       709302 100  330 100 1880
88      -681818  90  350  90   0
89       681818  90  350  90 1880
90      -670455  90  350  90   0
91       670455  90  350  90 1880
92      -659091  90  350  90   0
93       659091  90  350  90 1880
94      -647727  90  350  90   0
95       647727  90  350  90 1880
96      -636364  90  350  90   0
97       636364  90  350  90 1880
98      -611111  80  370  80   0
99       611111  80  370  80 1880
100      -600000  80  370  80   0
101       600000  80  370  80 1880
102      -588889  80  370  80   0
103       588889  80  370  80 1880
104      -577778  80  370  80   0
105       577778  80  370  80 1880
106      -566667  80  370  80   0
107       566667  80  370  80 1880
108      -555556  80  370  80   0
109       555556  80  370  80 1880
110      -532609  70  390  70   0
111       532609  70  390  70 1880
112      -521739  70  390  70   0
113       521739  70  390  70 1880
114      -510870  70  390  70   0
115       510870  70  390  70 1880
116      -500000  70  390  70   0
117       500000  70  390  70 1880
118      -489130  70  390  70   0
119       489130  70  390  70 1880
120      -478261  70  390  70   0
121       478261  70  390  70 1880
122      -457447  60  410  60   0
123       457447  60  410  60 1880
124      -446809  60  410  60   0
125       446809  60  410  60 1880
126      -436170  60  410  60   0
127       436170  60  410  60 1880
128      -425532  60  410  60   0
129       425532  60  410  60 1880
130      -414894  60  410  60   0
131       414894  60  410  60 1880
132      -404255  60  410  60   0
133       404255  60  410  60 1880
134      -393617  60  410  60   0
135       393617  60  410  60 1880
136      -375000  50  430  50   0
137       375000  50  430  50 1880
138      -364583  50  430  50   0
139       364583  50  430  50 1880
140      -354167  50  430  50   0
141       354167  50  430  50 1880
142      -343750  50  430  50   0
143       343750  50  430  50 1880
144      -333333  50  430  50   0
145       333333  50  430  50 1880
146      -322917  50  430  50   0
147       322917  50  430  50 1880
148      -306122  40  450  40   0
149       306122  40  450  40 1880
150      -295918  40  450  40   0
151       295918  40  450  40 1880
152      -285714  40  450  40   0
153       285714  40  450  40 1880
154      -275510  40  450  40   0
155       275510  40  450  40 1880
156      -265306  40  450  40   0
157       265306  40  450  40 1880
158      -255102  40  450  40   0
159       255102  40  450  40 1880
160      -244898  40  450  40   0
161       244898  40  450  40 1880
162      -234694  40  450  40   0
163       234694  40  450  40 1880
164      -220000  30  470  30   0
165       220000  30  470  30 1880
166      -210000  30  470  30   0
167       210000  30  470  30 1880
168      -200000  30  470  30   0
169       200000  30  470  30 1880
170      -190000  30  470  30   0
171       190000  30  470  30 1880
172      -180000  30  470  30   0
173       180000  30  470  30 1880
174      -170000  30  470  30   0
175       170000  30  470  30 1880
176      -160000  30  470  30   0
177       160000  30  470  30 1880
178      -147059  20  490  20   0
179       147059  20  490  20 1880
180      -137255  20  490  20   0
181       137255  20  490  20 1880
182      -127451  20  490  20   0
183       127451  20  490  20 1880
184      -117647  20  490  20   0
185       117647  20  490  20 1880
186      -107843  20  490  20   0
187       107843  20  490  20 1880
188     -98039.2  20  490  20   0
189      98039.2  20  490  20 1880
190     -88235.3  20  490  20   0
191      88235.3  20  490  20 1880
192     -78431.4  20  490  20   0
193      78431.4  20  490  20 1880
194     -67307.7  10  510  10   0
195      67307.7  10  510  10 1880
196     -57692.3  10  510  10   0
197      57692.3  10  510  10 1880
198     -48076.9  10  510  10   0
199      48076.9  10  510  10 1880
200     -38461.5  10  510  10   0
201      38461.5  10  510  10 1880
202     -28846.2  10  510  10   0
203      28846.2  10  510  10 1880
204     -19230.8  10  510  10   0
205      19230.8  10  510  10 1880
206     -9615.38  10  510  10   0
207      9615.38  10  510  10 1880
208      9615.38  10  510  10   0
209     -9615.38  10  510  10 1880
210      19230.8  10  510  10   0
211     -19230.8  10  510  10 1880
212      28846.2  10  510  10   0
213     -28846.2  10  510  10 1880
214      38461.5  10  510  10   0
215     -38461.5  10  510  10 1880
216      48076.9  10  510  10   0
217     -48076.9  10  510  10 1880
218      57692.3  10  510  10   0
219     -57692.3  10  510  10 1880
220      67307.7  10  510  10   0
221     -67307.7  10  510  10 1880
222      78431.4  20  490  20   0
223     -78431.4  20  490  20 1880
224      88235.3  20  490  20   0
225     -88235.3  20  490  20 1880
226      98039.2  20  490  20   0
227     -98039.2  20  490  20 1880
228       107843  20  490  20   0
229      -107843  20  490  20 1880
230       117647  20  490  20   0
231      -117647  20  490  20 1880
232       127451  20  490  20   0
233      -127451  20  490  20 1880
234       137255  20  490  20   0
235      -137255  20  490  20 1880
236       147059  20  490  20   0
237      -147059  20  490  20 1880
238       160000  30  470  30   0
239      -160000  30  470  30 1880
240       170000  30  470  30   0
241      -170000  30  470  30 1880
242       180000  30  470  30   0
243      -180000  30  470  30 1880
244       190000  30  470  30   0
245      -190000  30  470  30 1880
246       200000  30  470  30   0
247      -200000  30  470  30 1880
248       210000  30  470  30   0
249      -210000  30  470  30 1880
250       220000  30  470  30   0
251      -220000  30  470  30 1880
252       234694  40  450  40   0
253      -234694  40  450  40 1880
254       244898  40  450  40   0
255      -244898  40  450  40 1880
256       255102  40  450  40   0
257      -255102  40  450  40 1880
258       265306  40  450  40   0
259      -265306  40  450  40 1880
260       275510  40  450  40   0
261      -275510  40  450  40 1880
262       285714  40  450  40   0
263      -285714  40  450  40 1880
264       295918  40  450  40   0
265      -295918  40  450  40 1880
266       306122  40  450  40   0
267      -306122  40  450  40 1880
268       322917  50  430  50   0
269      -322917  50  430  50 1880
270       333333  50  430  50   0
271      -333333  50  430  50 1880
272       343750  50  430  50   0
273      -343750  50  430  50 1880
274       354167  50  430  50   0
275      -354167  50  430  50 1880
276       364583  50  430  50   0
277      -364583  50  430  50 1880
278       375000  50  430  50   0
279      -375000  50  430  50 1880
280       393617  60  410  60   0
281      -393617  60  410  60 1880
282       404255  60  410  60   0
283      -404255  60  410  60 1880
284       414894  60  410  60   0
285      -414894  60  410  60 1880
286       425532  60  410  60   0
287      -425532  60  410  60 1880
288       436170  60  410  60   0
289      -436170  60  410  60 1880
290       446809  60  410  60   0
291      -446809  60  410  60 1880
292       457447  60  410  60   0
293      -457447  60  410  60 1880
294       478261  70  390  70   0
295      -478261  70  390  70 1880
296       489130  70  390  70   0
297      -489130  70  390  70 1880
298       500000  70  390  70   0
299      -500000  70  390  70 1880
300       510870  70  390  70   0
301      -510870  70  390  70 1880
302       521739  70  390  70   0
303      -521739  70  390  70 1880
304       532609  70  390  70   0
305      -532609  70  390  70 1880
306       555556  80  370  80   0
307      -555556  80  370  80 1880
308       566667  80  370  80   0
309      -566667  80  370  80 1880
310       577778  80  370  80   0
311      -577778  80  370  80 1880
312       588889  80  370  80   0
313      -588889  80  370  80 1880
314       600000  80  370  80   0
315      -600000  80  370  80 1880
316       611111  80  370  80   0
317      -611111  80  370  80 1880
318       636364  90  350  90   0
319      -636364  90  350  90 1880
320       647727  90  350  90   0
321      -647727  90  350  90 1880
322       659091  90  350  90   0
323      -659091  90  350  90 1880
324       670455  90  350  90   0
325      -670455  90  350  90 1880
326       681818  90  350  90   0
327      -681818  90  350  90 1880
328       709302 100  330 100   0
329      -709302 100  330 100 1880
330       720930 100  330 100   0
331      -720930 100  330 100 1880
332       732558 100  330 100   0
333      -732558 100  330 100 1880
334       744186 100  330 100   0
335      -744186 100  330 100 1880
336       755814 100  330 100   0
337      -755814 100  330 100 1880
338       785714 110  310 110   0
339      -785714 110  310 110 1880
340       797619 110  310 110   0
341      -797619 110  310 110 1880
342       809524 110  310 110   0
343      -809524 110  310 110 1880
344       821429 110  310 110   0
345      -821429 110  310 110 1880
346       833333 110  310 110   0
347      -833333 110  310 110 1880
348       865854 120  290 120   0
349      -865854 120  290 120 1880
350       878049 120  290 120   0
351      -878049 120  290 120 1880
352       890244 120  290 120   0
353      -890244 120  290 120 1880
354       902439 120  290 120   0
355      -902439 120  290 120 1880
356       914634 120  290 120   0
357      -914634 120  290 120 1880
358       950000 130  270 130   0
359      -950000 130  270 130 1880
360       962500 130  270 130   0
361      -962500 130  270 130 1880
362       975000 130  270 130   0
363      -975000 130  270 130 1880
364       987500 130  270 130   0
365      -987500 130  270 130 1880
366  1.02564e+06 140  250 140   0
367 -1.02564e+06 140  250 140 1880
368  1.03846e+06 140  250 140   0
369 -1.03846e+06 140  250 140 1880
370  1.05128e+06 140  250 140   0
371 -1.05128e+06 140  250 140 1880
372   1.0641e+06 140  250 140   0
373  -1.0641e+06 140  250 140 1880
374  1.10526e+06 150  230 150   0
375 -1.10526e+06 150  230 150 1880
376  1.11842e+06 150  230 150   0
377 -1.11842e+06 150  230 150 1880
378  1.13158e+06 150  230 150   0
379 -1.13158e+06 150  230 150 1880
380  1.14474e+06 150  230 150   0
381 -1.14474e+06 150  230 150 1880
382  1.18919e+06 160  210 160   0
383 -1.18919e+06 160  210 160 1880
384   1.2027e+06 160  210 160   0
385  -1.2027e+06 160  210 160 1880
386  1.21622e+06 160  210 160   0
387 -1.21622e+06 160  210 160 1880
388  1.26389e+06 170  190 170   0
389 -1.26389e+06 170  190 170 1880
390  1.27778e+06 170  190 170   0
391 -1.27778e+06 170  190 170 1880
392  1.29167e+06 170  190 170   0
393 -1.29167e+06 170  190 170 1880
394  1.34286e+06 180  170 180   0
395 -1.34286e+06 180  170 180 1880
396  1.35714e+06 180  170 180   0
397 -1.35714e+06 180  170 180 1880
398  1.37143e+06 180  170 180   0
399 -1.37143e+06 180  170 180 1880
400  1.42647e+06 190  150 190   0
401 -1.42647e+06 190  150 190 1880
402  1.44118e+06 190  150 190   0
403 -1.44118e+06 190  150 190 1880
404  1.45588e+06 190  150 190   0
405 -1.45588e+06 190  150 190 1880
406 -1.68459e+06 220   90 220 1430
407 -1.68459e+06 220   90 220 2450
408 -1.68459e+06 220   90 220 3470
409 -1.68459e+06 220   90 220 4490
410 -1.68459e+06 220   90 220 5510

# Format of ADC events:
# id num dwell delay freq phase
# ..  ..    ns    us   Hz   rad
[ADC]
1 200 9000 80 0 3.14159
2 200 9000 80 0 5.18363
3 200 9000 80 0 2.98451
4 200 9000 80 0 2.82743
5 200 9000 80 0 4.71239
6 200 9000 80 0 2.35619
7 200 9000 80 0 2.04204
8 200 9000 80 0 3.76991
9 200 9000 80 0 1.25664
10 200 9000 80 0 0.785398
11 200 9000 80 0 5.96903
12 200 9000 80 0 5.34071
13 200 9000 80 0 0.471239
14 200 9000 80 0 3.92699
15 200 9000 80 0 4.39823
16 200 9000 80 0 1.41372
17 200 9000 80 0 1.5708
18 200 9000 80 0 3.61283
19 200 9000 80 0 4.55531
20 200 9000 80 0 0
21 200 9000 80 0 2.19911
22 200 9000 80 0 5.49779
23 200 9000 80 0 0.628319
24 200 9000 80 0 6.12611

# Format of extension lists:
# id type ref next_id
# next_id of 0 terminates the list
# Extension list is followed by extension specifications
[EXTENSIONS]
1 1 1 0
2 1 2 0
3 2 1 0
4 2 2 0

# Extension specification for setting labels:
# id set labelstring
extension LABELSET 1
1 0 ECO
2 0 LIN

# Extension specification for increasing labels:
# id set labelstring
extension LABELINC 2
1 1 LIN
2 1 ECO

# Sequence Shapes
[SHAPES]

shape_id 1
num_samples 2000
8.00403207e-05
0.000240364508
0.000401019348
0.000562011973
0.000723349541
0.000885039232
0.00104708825
0.00120950381
0.00137229317
0.00153546357
0.00169902229
0.00186297663
0.00202733387
0.00219210134
0.00235728635
0.00252289623
0.00268893833
0.00285541997
0.00302234851
0.0031897313
0.00335757566
0.00352588896
0.00369467853
0.00386395171
0.00403371583
0.00420397822
0.00437474618
0.00454602702
0.00471782802
0.00489015647
0.00506301962
0.00523642471
0.00541037896
0.00558488958
0.00575996374
0.0059356086
0.00611183128
0.00628863889
0.00646603849
0.00664403713
0.00682264182
0.00700185952
0.00718169717
0.00736216167
0.00754325988
0.00772499862
0.00790738467
0.00809042475
0.00827412556
0.00845849372
0.00864353582
0.0088292584
0.00901566795
0.00920277089
0.00939057359
0.00957908236
0.00976830346
0.00995824308
0.0101489073
0.0103403023
0.010532434
0.0107253083
0.0109189311
0.0111133082
0.0113084453
0.011504348
0.0117010218
0.0118984724
0.012096705
0.0122957249
0.0124955375
0.0126961479
0.012897561
0.013099782
0.0133028156
0.0135066667
0.01371134
0.01391684
0.0141231712
0.0143303381
0.014538345
0.014747196
0.0149568952
0.0151674467
0.0153788543
0.0155911217
0.0158042527
0.0160182508
0.0162331194
0.0164488618
0.0166654812
0.0168829808
0.0171013634
0.0173206319
0.017540789
0.0177618373
0.0179837793
0.0182066172
0.0184303533
0.0186549897
0.0188805282
0.0191069707
0.0193343189
0.0195625742
0.019791738
0.0200218116
0.020252796
0.0204846923
0.0207175012
0.0209512233
0.0211858593
0.0214214094
0.0216578738
0.0218952527
0.0221335458
0.022372753
0.0226128737
0.0228539075
0.0230958536
0.0233387111
0.0235824789
0.0238271557
0.0240727403
0.0243192309
0.0245666259
0.0248149234
0.0250641213
0.0253142173
0.025565209
0.0258170938
0.0260698689
0.0263235313
0.0265780779
0.0268335054
0.0270898102
0.0273469887
0.027605037
0.027863951
0.0281237265
0.028384359
0.0286458439
0.0289081764
0.0291713514
0.0294353637
0.029700208
0.0299658786
0.0302323697
0.0304996753
0.0307677893
0.0310367052
0.0313064165
0.0315769162
0.0318481975
0.0321202531
0.0323930756
0.0326666574
0.0329409906
0.0332160671
0.0334918789
0.0337684173
0.0340456737
0.0343236393
0.0346023049
0.0348816612
0.0351616987
0.0354424076
0.035723778
0.0360057997
0.0362884624
0.0365717553
0.0368556677
0.0371401885
0.0374253065
0.03771101
0.0379972875
0.0382841269
0.0385715162
0.0388594428
0.0391478942
0.0394368576
0.0397263198
0.0400162676
0.0403066874
0.0405975656
0.040888888
0.0411806406
0.0414728087
0.0417653779
0.0420583332
0.0423516594
0.0426453412
0.042939363
0.0432337089
0.043528363
0.0438233088
0.04411853
0.0444140097
0.0447097309
0.0450056764
0.0453018288
0.0455981703
0.0458946831
0.0461913489
0.0464881493
0.0467850658
0.0470820795
0.0473791712
0.0476763217
0.0479735113
0.0482707202
0.0485679285
0.0488651157
0.0491622615
0.049459345
0.0497563453
0.0500532411
0.050350011
0.0506466334
0.0509430862
0.0512393473
0.0515353944
0.0518312048
0.0521267557
0.0524220239
0.0527169862
0.0530116189
0.0533058983
0.0535998004
0.0538933009
0.0541863753
0.0544789989
0.0547711468
0.0550627938
0.0553539144
0.0556444831
0.055934474
0.0562238609
0.0565126176
0.0568007175
0.0570881339
0.0573748397
0.0576608078
0.0579460106
0.0582304205
0.0585140096
0.0587967498
0.0590786127
0.0593595699
0.0596395924
0.0599186514
0.0601967176
0.0604737615
0.0607497536
0.0610246639
0.0612984624
0.0615711188
0.0618426026
0.062112883
0.0623819292
0.0626497099
0.0629161939
0.0631813496
0.0634451452
0.0637075488
0.0639685282
0.0642280511
0.0644860847
0.0647425965
0.0649975534
0.0652509222
0.0655026696
0.065752762
0.0660011657
0.0662478466
0.0664927707
