# Pulseq sequence file
# Created by MATLAB mr toolbox

[VERSION]
major 1
minor 4
revision 1

[DEFINITIONS]
AdcRasterTime 1e-07 
BlockDurationRaster 1e-05 
FOV 0.15 0.15 0.004 
GradientRasterTime 1e-05 
Name xw_sp2d-1mm-r2-noSync 
RadiofrequencyRasterTime 1e-06 
Slice_Thickness 0.002 
TE 0.005 
TR 0.5 
accelerationFactor 2 
adc_DwellTime 1e-06 
adc_effectiveTime 0.996828274 
adc_length 44000 
adc_nSegments 44 
adc_segmentDuration 0.001 
adc_segmentLength 1000 
doFastestPrescan 0 
flipAngle 10 
isSpiral 1 
matrixSize 150 150 1 
nRepetitions 1 
nSlices 1 
readoutGradientDuration 0.04415 
resolution 0.001 
skope_acqDuration 0.04535 
skope_gradFreeDelay 0.0002 
skope_interleaveTR 0.49 
skope_maxSegmentDuration 0.04415 
skope_minimalTR 0.11 
skope_nDynamics 1 
skope_nInterleaves 1 
skope_nPrescans 0 
skope_nSegments2measure 1 
skope_stitchMode concurrent 
skope_trig2AdcTime 0.0002 
skope_trigChannel osc0 
skope_triggerDelays 0 
useSingleAdcSegment4Prescan 0 

# Format of blocks:
# NUM DUR RF  GX  GY  GZ  ADC  EXT
[BLOCKS]
1   0   0   0   0   0  0  3
2   0   0   0   0   0  0  4
 3 882   1   0   0   1  0  0
 4 224   2   0   0   2  0  0
 5  72   0   0   0   3  0  0
 6 296   0   0   0   0  0  0
 7  20   0   0   0   0  0  2
 8 4415   0   4   5   0  1  0
 9 170   0   7   8   6  0  0


# Format of RF events:
# id amplitude mag_id phase_id time_shape_id delay freq phase
# ..        Hz   ....     ....          ....    us   Hz   rad
[RF]
1      471.175 1 2 3 100 -1542.32 38.7626
2      55.8277 4 5 0 120 0 -0

# Format of arbitrary gradients:
#   time_shape_id of 0 means default timing (stepping with grad_raster starting at 1/2 of grad_raster)
# id amplitude amp_shape_id time_shape_id delay
# ..      Hz/m       ..         ..          us
[GRADIENTS]
4 -1.78097e+06 6 0 0
5  1.77486e+06 7 0 0
7     -861.023 8 9 0
8     -52402.3 10 9 0

# Format of trapezoid gradients:
# id amplitude rise flat fall delay
# ..      Hz/m   us   us   us    us
[TRAP]
 1  2.85714e+06 350    0 350 8120
 2        1e+06 120 2000 120   0
 3 -2.94444e+06 360    0 360   0
 6  2.96296e+06 350 1000 350   0

# Format of ADC events:
# id num dwell delay freq phase
# ..  ..    ns    us   Hz   rad
[ADC]
1 44000 1000 0 0 0

# Format of extension lists:
# id type ref next_id
# next_id of 0 terminates the list
# Extension list is followed by extension specifications
[EXTENSIONS]
1 1 1 0
2 2 1 0
3 3 1 0
4 3 2 0

# Extension specification for digital output and input triggers:
# id type channel delay (us) duration (us)
extension TRIGGERS 2
1 1 1 0 10

# Extension specification for setting labels:
# id set labelstring
extension LABELSET 1
1 0 SLC

# Extension specification for increasing labels:
# id set labelstring
extension LABELINC 3
1 1 SLC
2 1 REP

# Sequence Shapes
[SHAPES]

shape_id 1
num_samples 800
0
0
248
1e-07
0
0
2
1e-07
0
1e-07
0
1e-07
1e-07
2
2e-07
2e-07
1
3e-07
4e-07
4e-07
0
6e-07
6e-07
0
8e-07
9e-07
1.1e-06
1.3e-06
1.6e-06
1.9e-06
2.3e-06
2.7e-06
3.2e-06
3.8e-06
4.5e-06
5.4e-06
6.3e-06
7.4e-06
8.8e-06
1.03e-05
1.22e-05
1.42e-05
1.67e-05
1.94e-05
2.27e-05
2.65e-05
3.08e-05
3.58e-05
4.15e-05
4.81e-05
5.55e-05
6.41e-05
7.39e-05
8.5e-05
9.76e-05
0.000112
0.0001283
0.0001466
0.0001673
0.0001907
0.0002169
0.0002464
0.0002795
0.0003164
0.0003576
0.0004037
0.0004548
0.0005116
0.0005746
0.0006443
0.0007212
0.000806
0.0008994
0.0010017
0.001114
0.0012369
0.0013708
0.001517
0.0016758
0.0018482
0.0020349
0.0022367
0.0024543
0.0026887
0.0029403
0.00321
0.0034985
0.0038063
0.0041342
0.0044825
0.0048516
0.0052421
0.0056541
0.0060876
0.0065428
0.0070195
0.0075174
0.0080363
0.0085753
0.0091338
0.0097109
0.0103052
0.0109156
0.0115405
0.012178
0.0128263
0.0134829
0.0141457
0.0148118
0.0154785
0.0161428
0.0168012
0.0174507
0.0180872
0.0187074
0.0193072
0.0198827
0.0204298
0.0209446
0.0214226
0.02186
0.0222525
0.0225962
0.0228871
0.0231213
0.0232953
0.0234058
0.0234494
0.0234233
0.023325
0.023152
0.0229027
0.0225755
0.0221693
0.0216837
0.0211182
0.0204735
0.0197503
0.0189497
0.0180738
0.0171249
0.0161057
0.0150194
0.01387
0.0126614
0.0113985
0.0100861
0.0087297
0.0073347
0.0059074
0.0044537
0.0029803
0.0014935
0
-0.0014935
-0.0029803
-0.0044537
-0.0059074
-0.0073347
-0.0087297
-0.0100861
-0.0113985
-0.0126614
-0.01387
-0.0150194
-0.0161057
-0.0171249
-0.0180738
-0.0189497
-0.0197503
-0.0204735
-0.0211182
-0.0216837
-0.0221693
-0.0225755
-0.0229027
-0.023152
-0.023325
-0.0234233
-0.0234494
-0.0234058
-0.0232953
-0.0231213
-0.0228871
-0.0225962
-0.0222525
-0.02186
-0.0214226
-0.0209446
-0.0204298
-0.0198827
-0.0193072
-0.0187074
-0.0180872
-0.0174507
-0.0168012
-0.0161428
-0.0154785
-0.0148118
-0.0141457
-0.0134829
-0.0128263
-0.012178
-0.0115405
-0.0109156
-0.0103052
-0.0097109
-0.0091338
-0.0085753
-0.0080363
-0.0075174
-0.0070195
-0.0065428
-0.0060876
-0.0056541
-0.0052421
-0.0048516
-0.0044825
-0.0041342
-0.0038063
-0.0034985
-0.00321
-0.0029403
-0.0026887
-0.0024543
-0.0022367
-0.0020349
-0.0018482
-0.0016758
-0.001517
-0.0013708
-0.0012369
-0.001114
-0.0010017
-0.0008994
-0.000806
-0.0007212
-0.0006443
-0.0005746
-0.0005116
-0.0004548
-0.0004037
-0.0003576
-0.0003164
-0.0002795
-0.0002464
-0.0002169
-0.0001907
-0.0001673
-0.0001466
-0.0001283
-0.000112
-9.76e-05
-8.5e-05
-7.39e-05
-6.41e-05
-5.55e-05
-4.81e-05
-4.15e-05
-3.58e-05
-3.08e-05
-2.65e-05
-2.27e-05
-1.94e-05
-1.67e-05
-1.42e-05
-1.22e-05
-1.03e-05
-8.8e-06
-7.4e-06
-6.3e-06
-5.4e-06
-4.5e-06
-3.8e-06
-3.2e-06
-2.7e-06
-2.3e-06
-1.9e-06
-1.6e-06
-1.3e-06
-1.1e-06
-9e-07
-8e-07
-6e-07
-6e-07
0
-4e-07
-4e-07
0
-3e-07
-2e-07
-2e-07
1
-1e-07
-1e-07
2
0
-1e-07
0
-1e-07
0
0
2
-1e-07
0
0
247

shape_id 2
num_samples 800
0
0
798

shape_id 3
num_samples 800
5
10
10
797

shape_id 4
num_samples 2000
8.00403207e-05
0.000240364508
0.000401019348
0.000562011973
0.000723349541
0.000885039232
0.00104708825
0.00120950381
0.00137229317
0.00153546357
0.00169902229
0.00186297663
0.00202733387
0.00219210134
0.00235728635
0.00252289623
0.00268893833
0.00285541997
0.00302234851
0.0031897313
0.00335757566
0.00352588896
0.00369467853
0.00386395171
0.00403371583
0.00420397822
0.00437474618
0.00454602702
0.00471782802
0.00489015647
0.00506301962
0.00523642471
0.00541037896
0.00558488958
0.00575996374
0.0059356086
0.00611183128
0.00628863889
0.00646603849
0.00664403713
0.00682264182
0.00700185952
0.00718169717
0.00736216167
0.00754325988
0.00772499862
0.00790738467
0.00809042475
0.00827412556
0.00845849372
0.00864353582
0.0088292584
0.00901566795
0.00920277089
0.00939057359
0.00957908236
0.00976830346
0.00995824308
0.0101489073
0.0103403023
0.010532434
0.0107253083
0.0109189311
0.0111133082
0.0113084453
0.011504348
0.0117010218
0.0118984724
0.012096705
0.0122957249
0.0124955375
0.0126961479
0.012897561
0.013099782
0.0133028156
0.0135066667
0.01371134
0.01391684
0.0141231712
0.0143303381
0.014538345
0.014747196
0.0149568952
0.0151674467
0.0153788543
0.0155911217
0.0158042527
0.0160182508
0.0162331194
0.0164488618
0.0166654812
0.0168829808
0.0171013634
0.0173206319
0.017540789
0.0177618373
0.0179837793
0.0182066172
0.0184303533
0.0186549897
0.0188805282
0.0191069707
0.0193343189
0.0195625742
0.019791738
0.0200218116
0.020252796
0.0204846923
0.0207175012
0.0209512233
0.0211858593
0.0214214094
0.0216578738
0.0218952527
0.0221335458
0.022372753
0.0226128737
0.0228539075
0.0230958536
0.0233387111
0.0235824789
0.0238271557
0.0240727403
0.0243192309
0.0245666259
0.0248149234
0.0250641213
0.0253142173
0.025565209
0.0258170938
0.0260698689
0.0263235313
0.0265780779
0.0268335054
0.0270898102
0.0273469887
0.027605037
0.027863951
0.0281237265
0.028384359
0.0286458439
0.0289081764
0.0291713514
0.0294353637
0.029700208
0.0299658786
0.0302323697
0.0304996753
0.0307677893
0.0310367052
0.0313064165
0.0315769162
0.0318481975
0.0321202531
0.0323930756
0.0326666574
0.0329409906
0.0332160671
0.0334918789
0.0337684173
0.0340456737
0.0343236393
0.0346023049
0.0348816612
0.0351616987
0.0354424076
0.035723778
0.0360057997
0.0362884624
0.0365717553
0.0368556677
0.0371401885
0.0374253065
0.03771101
0.0379972875
0.0382841269
0.0385715162
0.0388594428
0.0391478942
0.0394368576
0.0397263198
0.0400162676
0.0403066874
0.0405975656
0.040888888
0.0411806406
0.0414728087
0.0417653779
0.0420583332
0.0423516594
0.0426453412
0.042939363
0.0432337089
0.043528363
0.0438233088
0.04411853
0.0444140097
0.0447097309
0.0450056764
0.0453018288
0.0455981703
0.0458946831
0.0461913489
0.0464881493
0.0467850658
0.0470820795
0.0473791712
0.0476763217
0.0479735113
0.0482707202
0.0485679285
0.0488651157
0.0491622615
0.049459345
0.0497563453
0.0500532411
0.050350011
0.0506466334
0.0509430862
0.0512393473
0.0515353944
0.0518312048
0.0521267557
0.0524220239
0.0527169862
0.0530116189
0.0533058983
0.0535998004
0.0538933009
0.0541863753
0.0544789989
0.0547711468
0.0550627938
0.0553539144
0.0556444831
0.055934474
0.0562238609
0.0565126176
0.0568007175
0.0570881339
0.0573748397
0.0576608078
0.0579460106
0.0582304205
0.0585140096
0.0587967498
0.0590786127
0.0593595699
0.0596395924
0.0599186514
0.0601967176
0.0604737615
0.0607497536
0.0610246639
0.0612984624
0.0615711188
0.0618426026
0.062112883
0.0623819292
0.0626497099
0.0629161939
0.0631813496
0.0634451452
0.0637075488
0.0639685282
0.0642280511
0.0644860847
0.0647425965
0.0649975534
0.0652509222
0.0655026696
0.065752762
0.0660011657
0.0662478466
0.0664927707
0.0667359036
0.0669772109
0.0672166577
0.0674542093
0.0676898304
0.0679234859
0.0681551404
0.0683847582
0.0686123034
0.0688377402
0.0690610324
0.0692821436
0.0695010374
0.069717677
0.0699320257
0.0701440465
0.0703537021
0.0705609553
0.0707657685
0.0709681042
0.0711679244
0.0713651913
0.0715598667
0.0717519123
0.0719412897
0.0721279604
0.0723118855
0.0724930264
0.0726713438
0.0728467988
0.0730193519
0.0731889639
0.073355595
0.0735192057
0.073679756
0.0738372062
0.0739915159
0.0741426452
0.0742905535
0.0744352006
0.0745765458
0.0747145484
0.0748491676
0.0749803626
0.0751080923
0.0752323155
0.0753529912
0.0754700778
0.0755835341
0.0756933184
0.0757993891
0.0759017046
0.076000223
0.0760949024
0.0761857008
0.0762725762
0.0763554864
0.0764343891
0.0765092422
0.0765800031
0.0766466295
0.0767090788
0.0767673085
0.0768212758
0.0768709382
0.0769162527
0.0769571767
0.0769936671
0.0770256812
0.0770531758
0.0770761081
0.0770944348
0.077108113
0.0771170994
0.077121351
0.0771208244
0.0771154765
0.0771052639
0.0770901435
0.0770700718
0.0770450056
0.0770149014
0.0769797161
0.0769394061
0.0768939281
0.0768432387
0.0767872945
0.0767260523
0.0766594685
0.0765874999
0.076510103
0.0764272345
0.0763388511
0.0762449095
0.0761453664
0.0760401785
0.0759293026
0.0758126955
0.075690314
0.0755621149
0.0754280553
0.0752880919
0.0751421819
0.0749902822
0.07483235
0.0746683424
0.0744982165
0.0743219297
0.0741394393
0.0739507026
0.0737556772
0.0735543206
0.0733465903
0.0731324441
0.0729118397
0.072684735
0.072451088
0.0722108567
0.0719639991
0.0717104736
0.0714502385
0.0711832521
0.0709094731
0.0706288601
0.0703413718
0.0700469671
0.069745605
0.0694372447
0.0691218453
0.0687993663
0.0684697671
0.0681330074
0.067789047
0.0674378458
0.0670793639
0.0667135613
0.0663403986
0.0659598363
0.0655718349
0.0651763554
0.0647733587
0.064362806
0.0639446587
0.0635188781
0.0630854261
0.0626442644
0.0621953552
0.0617386605
0.0612741429
0.060801765
0.0603214895
0.0598332794
0.059337098
0.0588329087
0.058320675
0.0578003608
0.0572719301
0.0567353472
0.0561905765
0.0556375827
0.0550763308
0.0545067859
0.0539289134
0.0533426788
0.0527480481
0.0521449874
0.0515334629
0.0509134414
0.0502848895
0.0496477744
0.0490020635
0.0483477244
0.0476847248
0.0470130331
0.0463326175
0.0456434468
0.0449454899
0.044238716
0.0435230947
0.0427985957
0.0420651892
0.0413228455
0.0405715352
0.0398112293
0.0390418992
0.0382635163
0.0374760525
0.0366794799
0.0358737712
0.035058899
0.0342348365
0.0334015571
0.0325590346
0.031707243
0.0308461567
0.0299757505
0.0290959995
0.028206879
0.0273083648
0.026400433
0.02548306
0.0245562226
0.0236198978
0.0226740633
0.0217186967
0.0207537764
0.0197792808
0.0187951889
0.0178014798
0.0167981334
0.0157851296
0.0147624487
0.0137300716
0.0126879794
0.0116361537
0.0105745762
0.00950322938
0.00842209586
0.00733115872
0.00623040142
0.00511980783
0.00399936221
0.00286904922
0.00172885393
0.000578761804
0.000581241276
0.00175116902
0.00293103474
0.00412085131
0.00532063119
0.00653038645
0.00775012871
0.00897986916
0.0102196186
0.0114693874
0.0127291854
0.0139990221
0.0152789067
0.0165688476
0.0178688532
0.019178931
0.0204990885
0.0218293325
0.0231696693
0.024520105
0.025880645
0.0272512944
0.0286320578
0.0300229394
0.0314239427
0.0328350711
0.0342563274
0.0356877137
0.037129232
0.0385808836
0.0400426695
0.04151459
0.0429966451
0.0444888344
0.0459911567
0.0475036107
0.0490261944
0.0505589054
0.0521017407
0.0536546971
0.0552177706
0.0567909568
0.058374251
0.0599676478
0.0615711413
0.0631847253
0.064808393
0.0664421371
0.0680859497
0.0697398226
0.071403747
0.0730777137
0.0747617128
0.076455734
0.0781597667
0.0798737994
0.0815978204
0.0833318175
0.0850757777
0.0868296879
0.0885935342
0.0903673023
0.0921509773
0.0939445439
0.0957479862
0.097561288
0.0993844323
0.101217402
0.103060178
0.104912744
0.106775079
0.108647165
0.110528981
0.112420508
0.114321723
0.116232606
0.118153134
0.120083286
0.122023037
0.123972364
0.125931244
0.127899651
0.129877561
0.131864948
0.133861785
0.135868045
0.137883703
0.139908729
0.141943096
0.143986775
0.146039737
0.148101951
0.150173388
0.152254016
0.154343804
0.15644272
0.158550733
0.160667808
0.162793912
0.164929012
0.167073073
0.169226059
0.171387936
0.173558667
0.175738216
0.177926545
0.180123617
0.182329394
0.184543837
0.186766907
0.188998565
0.19123877
0.193487481
0.195744657
0.198010257
0.200284238
0.202566557
0.204857172
0.207156039
0.209463112
0.211778348
0.214101701
0.216433126
0.218772576
0.221120004
0.223475363
0.225838605
0.228209682
0.230588545
0.232975145
0.235369432
0.237771356
0.240180865
0.24259791
0.245022437
0.247454396
0.249893732
0.252340393
0.254794325
0.257255474
0.259723785
0.262199204
0.264681674
0.267171139
0.269667543
0.272170829
0.274680939
0.277197815
0.279721399
0.282251633
0.284788455
0.287331808
0.289881629
0.29243786
0.295000437
0.297569301
0.300144388
0.302725636
0.305312982
0.307906363
0.310505714
0.313110972
0.315722071
0.318338946
0.320961532
0.323589763
0.326223571
0.328862891
0.331507654
0.334157793
0.33681324
0.339473926
0.342139782
0.344810738
0.347486725
0.350167672
0.352853509
0.355544164
0.358239567
0.360939645
0.363644326
0.366353537
0.369067205
0.371785257
0.374507619
0.377234217
0.379964975
0.382699821
0.385438677
0.388181468
0.390928118
0.393678551
0.39643269
0.399190458
0.401951777
0.404716569
0.407484757
0.410256262
0.413031004
0.415808906
0.418589886
0.421373866
0.424160765
0.426950502
0.429742997
0.432538169
0.435335936
0.438136217
0.440938928
0.443743989
0.446551316
0.449360826
0.452172436
0.454986062
0.457801621
0.460619029
0.4634382
0.466259051
0.469081496
0.471905451
0.474730829
0.477557545
0.480385513
0.483214647
0.48604486
0.488876066
0.491708177
0.494541107
0.497374768
0.500209071
0.50304393
0.505879256
0.508714961
0.511550957
0.514387154
0.517223463
0.520059796
0.522896063
0.525732174
0.52856804
0.531403571
0.534238677
0.537073267
0.539907251
0.542740539
0.545573039
0.54840466
0.551235312
0.554064904
0.556893343
0.559720539
0.562546399
0.565370832
0.568193746
0.571015048
0.573834648
0.576652451
0.579468367
0.582282301
0.585094163
0.587903858
0.590711295
0.59351638
0.596319019
0.599119122
0.601916593
0.604711339
0.607503268
0.610292286
0.6130783
0.615861216
0.61864094
0.62141738
0.62419044
0.626960029
0.629726051
0.632488414
0.635247023
0.638001785
0.640752606
0.643499392
0.646242049
0.648980484
0.651714603
0.654444311
0.657169516
0.659890124
0.66260604
0.665317171
0.668023423
0.670724703
0.673420918
0.676111972
0.678797774
0.681478229
0.684153245
0.686822727
0.689486583
0.69214472
0.694797043
0.697443461
0.70008388
0.702718208
0.705346351
0.707968218
0.710583714
0.713192749
0.71579523
0.718391064
0.720980159
0.723562424
0.726137767
0.728706096
0.731267318
0.733821344
0.736368082
0.73890744
0.741439329
0.743963656
0.746480331
0.748989264
0.751490365
0.753983544
0.75646871
0.758945775
0.761414648
0.76387524
0.766327463
0.768771227
0.771206444
0.773633025
0.776050882
0.778459927
0.780860072
0.78325123
0.785633314
0.788006237
0.790369911
0.79272425
0.795069169
0.79740458
0.799730399
0.802046539
0.804352916
0.806649445
0.808936042
0.811212621
0.813479099
0.815735392
0.817981416
0.82021709
0.822442329
0.824657051
0.826861175
0.829054618
0.831237299
0.833409136
0.83557005
0.837719958
0.839858782
0.841986442
0.844102857
0.846207949
0.848301639
0.85038385
0.852454502
0.854513518
0.856560821
0.858596335
0.860619982
0.862631687
0.864631373
0.866618967
0.868594392
0.870557575
0.872508441
0.874446916
0.876372928
0.878286404
0.880187271
0.882075458
0.883950892
0.885813503
0.88766322
0.889499973
0.891323693
0.893134309
0.894931753
0.896715957
0.898486853
0.900244374
0.901988452
0.903719021
0.905436014
0.907139368
0.908829015
0.910504892
0.912166935
0.91381508
0.915449265
0.917069425
0.9186755
0.920267428
0.921845148
0.923408599
0.924957721
0.926492455
0.928012741
0.929518522
0.931009739
0.932486336
0.933948254
0.935395438
0.936827832
0.938245381
0.93964803
0.941035725
0.942408413
0.94376604
0.945108554
0.946435903
0.947748035
0.949044901
0.950326449
0.951592631
0.952843397
0.954078698
0.955298487
0.956502717
0.95769134
0.958864312
0.960021585
0.961163115
0.962288859
0.963398771
0.964492809
0.965570931
0.966633094
0.967679258
0.96870938
0.969723423
0.970721345
0.971703108
0.972668673
0.973618004
0.974551063
0.975467814
0.97636822
0.977252247
0.978119861
0.978971027
0.979805712
0.980623884
0.98142551
0.98221056
0.982979002
0.983730806
0.984465944
0.985184387
0.985886105
0.986571072
0.987239262
0.987890647
0.988525203
0.989142904
0.989743726
0.990327647
0.990894642
0.99144469
0.991977769
0.992493858
0.992992937
0.993474987
0.993939988
0.994387923
0.994818773
0.995232522
0.995629154
0.996008653
0.996371003
0.996716192
0.997044205
0.99735503
0.997648654
0.997925065
0.998184254
0.998426209
0.998650921
0.998858382
0.999048583
0.999221517
0.999377177
0.999515557
0.999636651
0.999740455
0.999826964
0.999896176
0.999948087
0.999982695
1
1
0.999982695
0.999948087
0.999896176
0.999826964
0.999740455
0.999636651
0.999515557
0.999377177
0.999221517
0.999048583
0.998858382
0.998650921
0.998426209
0.998184254
0.997925065
0.997648654
0.99735503
0.997044205
0.996716192
0.996371003
0.996008653
0.995629154
0.995232522
0.994818773
0.994387923
0.993939988
0.993474987
0.992992937
0.992493858
0.991977769
0.99144469
0.990894642
0.990327647
0.989743726
0.989142904
0.988525203
0.987890647
0.987239262
0.986571072
0.985886105
0.985184387
0.984465944
0.983730806
0.982979002
0.98221056
0.98142551
0.980623884
0.979805712
0.978971027
0.978119861
0.977252247
0.97636822
0.975467814
0.974551063
0.973618004
0.972668673
0.971703108
0.970721345
0.969723423
0.96870938
0.967679258
0.966633094
0.965570931
0.964492809
0.963398771
0.962288859
0.961163115
0.960021585
0.958864312
0.95769134
0.956502717
0.955298487
0.954078698
0.952843397
0.951592631
0.950326449
0.949044901
0.947748035
0.946435903
0.945108554
0.94376604
0.942408413
0.941035725
0.93964803
0.938245381
0.936827832
0.935395438
0.933948254
0.932486336
0.931009739
0.929518522
0.928012741
0.926492455
0.924957721
0.923408599
0.921845148
0.920267428
0.9186755
0.917069425
0.915449265
0.91381508
0.912166935
0.910504892
0.908829015
0.907139368
0.905436014
0.903719021
0.901988452
0.900244374
0.898486853
0.896715957
0.894931753
0.893134309
0.891323693
0.889499973
0.88766322
0.885813503
0.883950892
0.882075458
0.880187271
0.878286404
0.876372928
0.874446916
0.872508441
0.870557575
0.868594392
0.866618967
0.864631373
0.862631687
0.860619982
0.858596335
0.856560821
0.854513518
0.852454502
0.85038385
0.848301639
0.846207949
0.844102857
0.841986442
0.839858782
0.837719958
0.83557005
0.833409136
0.831237299
0.829054618
0.826861175
0.824657051
0.822442329
0.82021709
0.817981416
0.815735392
0.813479099
0.811212621
0.808936042
0.806649445
0.804352916
0.802046539
0.799730399
0.79740458
0.795069169
0.79272425
0.790369911
0.788006237
0.785633314
0.78325123
0.780860072
0.778459927
0.776050882
0.773633025
0.771206444
0.768771227
0.766327463
0.76387524
0.761414648
0.758945775
0.75646871
0.753983544
0.751490365
0.748989264
0.746480331
0.743963656
0.741439329
0.73890744
0.736368082
0.733821344
0.731267318
0.728706096
0.726137767
0.723562424
0.720980159
0.718391064
0.71579523
0.713192749
0.710583714
0.707968218
0.705346351
0.702718208
0.70008388
0.697443461
0.694797043
0.69214472
0.689486583
0.686822727
0.684153245
0.681478229
0.678797774
0.676111972
0.673420918
0.670724703
0.668023423
0.665317171
0.66260604
0.659890124
0.657169516
0.654444311
0.651714603
0.648980484
0.646242049
0.643499392
0.640752606
0.638001785
0.635247023
0.632488414
0.629726051
0.626960029
0.62419044
0.62141738
0.61864094
0.615861216
0.6130783
0.610292286
0.607503268
0.604711339
0.601916593
0.599119122
0.596319019
0.59351638
0.590711295
0.587903858
0.585094163
0.582282301
0.579468367
0.576652451
0.573834648
0.571015048
0.568193746
0.565370832
0.562546399
0.559720539
0.556893343
0.554064904
0.551235312
0.54840466
0.545573039
0.542740539
0.539907251
0.537073267
0.534238677
0.531403571
0.52856804
0.525732174
0.522896063
0.520059796
0.517223463
0.514387154
0.511550957
0.508714961
0.505879256
0.50304393
0.500209071
0.497374768
0.494541107
0.491708177
0.488876066
0.48604486
0.483214647
0.480385513
0.477557545
0.474730829
0.471905451
0.469081496
0.466259051
0.4634382
0.460619029
0.457801621
0.454986062
0.452172436
0.449360826
0.446551316
0.443743989
0.440938928
0.438136217
0.435335936
0.432538169
0.429742997
0.426950502
0.424160765
0.421373866
0.418589886
0.415808906
0.413031004
0.410256262
0.407484757
0.404716569
0.401951777
0.399190458
0.39643269
0.393678551
0.390928118
0.388181468
0.385438677
0.382699821
0.379964975
0.377234217
0.374507619
0.371785257
0.369067205
0.366353537
0.363644326
0.360939645
0.358239567
0.355544164
0.352853509
0.350167672
0.347486725
0.344810738
0.342139782
0.339473926
0.33681324
0.334157793
0.331507654
0.328862891
0.326223571
0.323589763
0.320961532
0.318338946
0.315722071
0.313110972
0.310505714
0.307906363
0.305312982
0.302725636
0.300144388
0.297569301
0.295000437
0.29243786
0.289881629
0.287331808
0.284788455
0.282251633
0.279721399
0.277197815
0.274680939
0.272170829
0.269667543
0.267171139
0.264681674
0.262199204
0.259723785
0.257255474
0.254794325
0.252340393
0.249893732
0.247454396
0.245022437
0.24259791
0.240180865
0.237771356
0.235369432
0.232975145
0.230588545
0.228209682
0.225838605
0.223475363
0.221120004
0.218772576
0.216433126
0.214101701
0.211778348
0.209463112
0.207156039
0.204857172
0.202566557
0.200284238
0.198010257
0.195744657
0.193487481
0.19123877
0.188998565
0.186766907
0.184543837
0.182329394
0.180123617
0.177926545
0.175738216
0.173558667
0.171387936
0.169226059
0.167073073
0.164929012
0.162793912
0.160667808
0.158550733
0.15644272
0.154343804
0.152254016
0.150173388
0.148101951
0.146039737
0.143986775
0.141943096
0.139908729
0.137883703
0.135868045
0.133861785
0.131864948
0.129877561
0.127899651
0.125931244
0.123972364
0.122023037
0.120083286
0.118153134
0.116232606
0.114321723
0.112420508
0.110528981
0.108647165
0.106775079
0.104912744
0.103060178
0.101217402
0.0993844323
0.097561288
0.0957479862
0.0939445439
0.0921509773
0.0903673023
0.0885935342
0.0868296879
0.0850757777
0.0833318175
0.0815978204
0.0798737994
0.0781597667
0.076455734
0.0747617128
0.0730777137
0.071403747
0.0697398226
0.0680859497
0.0664421371
0.064808393
0.0631847253
0.0615711413
0.0599676478
0.058374251
0.0567909568
0.0552177706
0.0536546971
0.0521017407
0.0505589054
0.0490261944
0.0475036107
0.0459911567
0.0444888344
0.0429966451
0.04151459
0.0400426695
0.0385808836
0.037129232
0.0356877137
0.0342563274
0.0328350711
0.0314239427
0.0300229394
0.0286320578
0.0272512944
0.025880645
0.024520105
0.0231696693
0.0218293325
0.0204990885
0.019178931
0.0178688532
0.0165688476
0.0152789067
0.0139990221
0.0127291854
0.0114693874
0.0102196186
0.00897986916
0.00775012871
0.00653038645
0.00532063119
0.00412085131
0.00293103474
0.00175116902
0.000581241276
0.000578761804
0.00172885393
0.00286904922
0.00399936221
0.00511980783
0.00623040142
0.00733115872
0.00842209586
0.00950322938
0.0105745762
0.0116361537
0.0126879794
0.0137300716
0.0147624487
0.0157851296
0.0167981334
0.0178014798
0.0187951889
0.0197792808
0.0207537764
0.0217186967
0.0226740633
0.0236198978
0.0245562226
0.02548306
0.026400433
0.0273083648
0.028206879
0.0290959995
0.0299757505
0.0308461567
0.031707243
0.0325590346
0.0334015571
0.0342348365
0.035058899
0.0358737712
0.0366794799
0.0374760525
0.0382635163
0.0390418992
0.0398112293
0.0405715352
0.0413228455
0.0420651892
0.0427985957
0.0435230947
0.044238716
0.0449454899
0.0456434468
0.0463326175
0.0470130331
0.0476847248
0.0483477244
0.0490020635
0.0496477744
0.0502848895
0.0509134414
0.0515334629
0.0521449874
0.0527480481
0.0533426788
0.0539289134
0.0545067859
0.0550763308
0.0556375827
0.0561905765
0.0567353472
0.0572719301
0.0578003608
0.058320675
0.0588329087
0.059337098
0.0598332794
0.0603214895
0.060801765
0.0612741429
0.0617386605
0.0621953552
0.0626442644
0.0630854261
0.0635188781
0.0639446587
0.064362806
0.0647733587
0.0651763554
0.0655718349
0.0659598363
0.0663403986
0.0667135613
0.0670793639
0.0674378458
0.067789047
0.0681330074
0.0684697671
0.0687993663
0.0691218453
0.0694372447
0.069745605
0.0700469671
0.0703413718
0.0706288601
0.0709094731
0.0711832521
0.0714502385
0.0717104736
0.0719639991
0.0722108567
0.072451088
0.072684735
0.0729118397
0.0731324441
0.0733465903
0.0735543206
0.0737556772
0.0739507026
0.0741394393
0.0743219297
0.0744982165
0.0746683424
0.07483235
0.0749902822
0.0751421819
0.0752880919
0.0754280553
0.0755621149
0.075690314
0.0758126955
0.0759293026
0.0760401785
0.0761453664
0.0762449095
0.0763388511
0.0764272345
0.076510103
0.0765874999
0.0766594685
0.0767260523
0.0767872945
0.0768432387
0.0768939281
0.0769394061
0.0769797161
0.0770149014
0.0770450056
0.0770700718
0.0770901435
0.0771052639
0.0771154765
0.0771208244
0.077121351
0.0771170994
0.077108113
0.0770944348
0.0770761081
0.0770531758
0.0770256812
0.0769936671
0.0769571767
0.0769162527
0.0768709382
0.0768212758
0.0767673085
0.0767090788
0.0766466295
0.0765800031
0.0765092422
0.0764343891
0.0763554864
0.0762725762
0.0761857008
0.0760949024
0.076000223
0.0759017046
0.0757993891
0.0756933184
0.0755835341
0.0754700778
0.0753529912
0.0752323155
0.0751080923
0.0749803626
0.0748491676
0.0747145484
0.0745765458
0.0744352006
0.0742905535
0.0741426452
0.0739915159
0.0738372062
0.073679756
0.0735192057
0.073355595
0.0731889639
0.0730193519
0.0728467988
0.0726713438
0.0724930264
0.0723118855
0.0721279604
0.0719412897
0.0717519123
0.0715598667
0.0713651913
0.0711679244
0.0709681042
0.0707657685
0.0705609553
0.0703537021
0.0701440465
0.0699320257
0.069717677
0.0695010374
0.0692821436
0.0690610324
0.0688377402
0.0686123034
0.0683847582
0.0681551404
0.0679234859
0.0676898304
0.0674542093
0.0672166577
0.0669772109
0.0667359036
0.0664927707
0.0662478466
0.0660011657
0.065752762
0.0655026696
0.0652509222
0.0649975534
0.0647425965
0.0644860847
0.0642280511
0.0639685282
0.0637075488
0.0634451452
0.0631813496
0.0629161939
0.0626497099
0.0623819292
0.062112883
0.0618426026
0.0615711188
0.0612984624
0.0610246639
0.0607497536
0.0604737615
0.0601967176
0.0599186514
0.0596395924
0.0593595699
0.0590786127
0.0587967498
0.0585140096
0.0582304205
0.0579460106
0.0576608078
0.0573748397
0.0570881339
0.0568007175
0.0565126176
0.0562238609
0.055934474
0.0556444831
0.0553539144
0.0550627938
0.0547711468
0.0544789989
0.0541863753
0.0538933009
0.0535998004
0.0533058983
0.0530116189
0.0527169862
0.0524220239
0.0521267557
0.0518312048
0.0515353944
0.0512393473
0.0509430862
0.0506466334
0.050350011
0.0500532411
0.0497563453
0.049459345
0.0491622615
0.0488651157
0.0485679285
0.0482707202
0.0479735113
0.0476763217
0.0473791712
0.0470820795
0.0467850658
0.0464881493
0.0461913489
0.0458946831
0.0455981703
0.0453018288
0.0450056764
0.0447097309
0.0444140097
0.04411853
0.0438233088
0.043528363
0.0432337089
0.042939363
0.0426453412
0.0423516594
0.0420583332
0.0417653779
0.0414728087
0.0411806406
0.040888888
0.0405975656
0.0403066874
0.0400162676
0.0397263198
0.0394368576
0.0391478942
0.0388594428
0.0385715162
0.0382841269
0.0379972875
0.03771101
0.0374253065
0.0371401885
0.0368556677
0.0365717553
0.0362884624
0.0360057997
0.035723778
0.0354424076
0.0351616987
0.0348816612
0.0346023049
0.0343236393
0.0340456737
0.0337684173
0.0334918789
0.0332160671
0.0329409906
0.0326666574
0.0323930756
0.0321202531
0.0318481975
0.0315769162
0.0313064165
0.0310367052
0.0307677893
0.0304996753
0.0302323697
0.0299658786
0.029700208
0.0294353637
0.0291713514
0.0289081764
0.0286458439
0.028384359
0.0281237265
0.027863951
0.027605037
0.0273469887
0.0270898102
0.0268335054
0.0265780779
0.0263235313
0.0260698689
0.0258170938
0.025565209
0.0253142173
0.0250641213
0.0248149234
0.0245666259
0.0243192309
0.0240727403
0.0238271557
0.0235824789
0.0233387111
0.0230958536
0.0228539075
0.0226128737
0.022372753
0.0221335458
0.0218952527
0.0216578738
0.0214214094
0.0211858593
0.0209512233
0.0207175012
0.0204846923
0.020252796
0.0200218116
0.019791738
0.0195625742
0.0193343189
0.0191069707
0.0188805282
0.0186549897
0.0184303533
0.0182066172
0.0179837793
0.0177618373
0.017540789
0.0173206319
0.0171013634
0.0168829808
0.0166654812
0.0164488618
0.0162331194
0.0160182508
0.0158042527
0.0155911217
0.0153788543
0.0151674467
0.0149568952
0.014747196
0.014538345
0.0143303381
0.0141231712
0.01391684
0.01371134
0.0135066667
0.0133028156
0.013099782
0.012897561
0.0126961479
0.0124955375
0.0122957249
0.012096705
0.0118984724
0.0117010218
0.011504348
0.0113084453
0.0111133082
0.0109189311
0.0107253083
0.010532434
0.0103403023
0.0101489073
0.00995824308
0.00976830346
0.00957908236
0.00939057359
0.00920277089
