# Pulseq sequence file
# Created by MATLAB mr toolbox

[VERSION]
major 1
minor 4
revision 1

[DEFINITIONS]
ADCDuration 0.13725 
AdcRasterTime 1e-07 
BlockDurationRaster 1e-05 
Developer Jinyuan Zhang 
FOV 0.15 0.15 0.002 
GradientRasterTime 1e-05 
MaxAdcSegmentLength 500 
MaxGrad 22 
MaxSlew 140 
Name spiral_fov150_150_R1.seq 
RadiofrequencyRasterTime 1e-06 
TotalDuration 0.16519 

# Format of blocks:
# NUM DUR RF  GX  GY  GZ  ADC  EXT
[BLOCKS]
1 1896   1   0   0   1  0  0
2 324   2   0   0   2  0  0
3 128   0   0   0   3  0  0
4 13727   0   4   5   0  1  0
5 444   0   7   8   6  0  0

# Format of RF events:
# id amplitude mag_id phase_id time_shape_id delay freq phase
# ..        Hz   ....     ....          ....    us   Hz   rad
[RF]
1      309.238 1 2 0 100 -1012.05 0
2      329.152 3 4 0 120 0 0

# Format of arbitrary gradients:
#   time_shape_id of 0 means default timing (stepping with grad_raster starting at 1/2 of grad_raster)
# id amplitude amp_shape_id time_shape_id delay
# ..      Hz/m       ..         ..          us
[GRADIENTS]
4      -880459 5 0 10
5       880458 6 0 10
7      -880400 7 8 0
8      10258.1 7 8 0

# Format of trapezoid gradients:
# id amplitude rise flat fall delay
# ..      Hz/m   us   us   us    us
[TRAP]
 1       936330 160 10520 160 8120
 2       666667 120 3000 120   0
 3      -928571 160  960 160   0
 6       934579 160 4120 160   0

# Format of ADC events:
# id num dwell delay freq phase
# ..  ..    ns    us   Hz   rad
[ADC]
1 72000 1900 10 0 0

# Sequence Shapes
[SHAPES]

shape_id 1
num_samples 8000
0
0
1712
1e-07
0
0
73
1e-07
0
0
33
1e-07
0
0
22
1e-07
0
0
15
1e-07
0
0
12
1e-07
0
0
9
1e-07
0
0
7
1e-07
0
0
7
1e-07
0
0
5
1e-07
0
0
5
1e-07
0
0
3
1e-07
0
0
4
1e-07
0
0
3
1e-07
0
0
2
1e-07
0
0
2
1e-07
0
0
2
1e-07
0
0
1
1e-07
0
0
2
1e-07
0
0
1
1e-07
0
0
0
1e-07
0
0
1
1e-07
0
0
1
1e-07
0
0
0
1e-07
0
0
0
1e-07
0
0
0
1e-07
0
0
0
1e-07
0
0
0
1e-07
0
0
0
1e-07
0
0
0
1e-07
0
1e-07
0
0
0
1e-07
0
1e-07
0
0
0
1e-07
0
1e-07
0
1e-07
0
1e-07
0
0
0
1e-07
0
1e-07
0
1e-07
0
1e-07
0
1e-07
1e-07
0
0
1e-07
0
1e-07
0
1e-07
0
1e-07
1e-07
0
0
1e-07
0
1e-07
1e-07
0
0
1e-07
1e-07
0
0
1e-07
1e-07
0
0
1e-07
1e-07
0
0
1e-07
1e-07
1
0
1e-07
1e-07
1
0
1e-07
1e-07
3
0
1e-07
1e-07
5
0
1e-07
1e-07
10
2e-07
1e-07
1e-07
5
2e-07
1e-07
1e-07
1
2e-07
1e-07
1e-07
1
2e-07
1e-07
1e-07
0
2e-07
1e-07
1e-07
0
2e-07
1e-07
2e-07
1e-07
1e-07
0
2e-07
1e-07
2e-07
1e-07
2e-07
2e-07
0
1e-07
2e-07
1e-07
2e-07
2e-07
0
1e-07
2e-07
2e-07
0
1e-07
2e-07
2e-07
2
1e-07
2e-07
2e-07
12
3e-07
2e-07
2e-07
1
3e-07
2e-07
2e-07
0
3e-07
2e-07
2e-07
0
3e-07
2e-07
3e-07
2e-07
3e-07
2e-07
3e-07
3e-07
0
2e-07
3e-07
3e-07
0
2e-07
3e-07
3e-07
12
4e-07
3e-07
3e-07
0
4e-07
3e-07
3e-07
0
4e-07
3e-07
4e-07
3e-07
4e-07
4e-07
0
3e-07
4e-07
4e-07
10
5e-07
4e-07
4e-07
0
5e-07
4e-07
5e-07
4e-07
5e-07
5e-07
0
4e-07
5e-07
5e-07
8
6e-07
5e-07
6e-07
5e-07
6e-07
5e-07
6e-07
6e-07
0
5e-07
6e-07
6e-07
4
7e-07
6e-07
6e-07
0
7e-07
6e-07
7e-07
6e-07
7e-07
7e-07
6
8e-07
7e-07
7e-07
0
8e-07
8e-07
0
7e-07
8e-07
8e-07
4
9e-07
8e-07
9e-07
8e-07
9e-07
8e-07
9e-07
9e-07
2
1e-06
9e-07
9e-07
0
1e-06
9e-07
1e-06
1e-06
5
1.1e-06
1e-06
1.1e-06
1.1e-06
5
1.2e-06
1.1e-06
1.2e-06
1.2e-06
4
1.3e-06
1.2e-06
1.3e-06
1.3e-06
4
1.4e-06
1.3e-06
1.4e-06
1.4e-06
2
1.5e-06
1.4e-06
1.5e-06
1.4e-06
1.5e-06
1.5e-06
0
1.6e-06
1.5e-06
1.5e-06
0
1.6e-06
1.6e-06
3
1.7e-06
1.7e-06
0
1.6e-06
1.7e-06
1.8e-06
1.7e-06
1.7e-06
0
1.8e-06
1.8e-06
2
1.9e-06
1.8e-06
1.9e-06
1.9e-06
2
2e-06
2e-06
4
2.1e-06
2.1e-06
1
2.2e-06
2.1e-06
2.2e-06
2.2e-06
1
2.3e-06
2.2e-06
2.3e-06
2.3e-06
1
2.4e-06
2.4e-06
3
2.5e-06
2.5e-06
1
2.6e-06
2.6e-06
0
2.5e-06
2.7e-06
2.6e-06
2.7e-06
2.7e-06
1
2.8e-06
2.7e-06
2.8e-06
2.9e-06
2.8e-06
2.9e-06
2.9e-06
0
3e-06
2.9e-06
3e-06
3.1e-06
3e-06
3.1e-06
3.1e-06
0
3.2e-06
3.2e-06
2
3.3e-06
3.3e-06
1
3.4e-06
3.4e-06
1
3.5e-06
3.5e-06
2
3.6e-06
3.7e-06
3.6e-06
3.7e-06
3.8e-06
3.7e-06
3.8e-06
3.9e-06
3.9e-06
2
4e-06
4e-06
0
4.1e-06
4.1e-06
1
4.2e-06
4.2e-06
0
4.3e-06
4.3e-06
1
4.4e-06
4.4e-06
0
4.5e-06
4.5e-06
0
4.6e-06
4.6e-06
1
4.7e-06
4.7e-06
1
4.8e-06
4.9e-06
4.9e-06
1
5e-06
5.1e-06
5e-06
5.2e-06
5.1e-06
5.3e-06
5.2e-06
5.4e-06
5.3e-06
5.4e-06
5.5e-06
5.5e-06
0
5.6e-06
5.6e-06
0
5.7e-06
5.7e-06
0
5.8e-06
5.8e-06
0
5.9e-06
6e-06
5.9e-06
6.1e-06
6.1e-06
0
6.2e-06
6.2e-06
1
6.4e-06
6.3e-06
6.5e-06
6.5e-06
0
6.6e-06
6.6e-06
0
6.7e-06
6.7e-06
0
6.8e-06
6.9e-06
6.9e-06
0
7e-06
7e-06
0
7.1e-06
7.2e-06
7.3e-06
7.3e-06
1
7.5e-06
7.5e-06
1
7.7e-06
7.7e-06
0
7.8e-06
7.8e-06
0
7.9e-06
8e-06
8.1e-06
8.1e-06
0
8.2e-06
8.3e-06
8.3e-06
0
8.5e-06
8.5e-06
1
8.7e-06
8.7e-06
0
8.8e-06
8.9e-06
9e-06
9e-06
0
9.1e-06
9.2e-06
9.3e-06
9.4e-06
9.4e-06
0
9.5e-06
9.6e-06
9.7e-06
9.8e-06
9.9e-06
9.9e-06
0
1.01e-05
1.01e-05
0
1.02e-05
1.03e-05
1.04e-05
1.05e-05
1.06e-05
1.06e-05
0
1.08e-05
1.09e-05
1.09e-05
0
1.1e-05
1.12e-05
1.12e-05
0
1.13e-05
1.15e-05
1.15e-05
0
1.16e-05
1.18e-05
1.18e-05
0
1.19e-05
1.2e-05
1.22e-05
1.22e-05
0
1.24e-05
1.24e-05
0
1.26e-05
1.26e-05
0
1.28e-05
1.29e-05
1.3e-05
1.31e-05
1.32e-05
1.33e-05
1.34e-05
1.36e-05
1.37e-05
1.38e-05
1.39e-05
1.4e-05
1.41e-05
1.43e-05
1.43e-05
0
1.45e-05
1.47e-05
1.47e-05
0
1.49e-05
1.5e-05
1.51e-05
1.52e-05
1.54e-05
1.55e-05
1.56e-05
1.58e-05
1.59e-05
1.6e-05
1.62e-05
1.63e-05
1.64e-05
1.66e-05
1.67e-05
1.68e-05
1.7e-05
1.71e-05
1.73e-05
1.74e-05
1.76e-05
1.77e-05
1.78e-05
1.8e-05
1.82e-05
1.83e-05
1.84e-05
1.86e-05
1.87e-05
1.89e-05
1.91e-05
1.92e-05
1.94e-05
1.95e-05
1.97e-05
1.98e-05
2.01e-05
2.01e-05
0
2.04e-05
2.05e-05
2.06e-05
2.09e-05
2.1e-05
2.12e-05
2.13e-05
2.16e-05
2.17e-05
2.18e-05
2.21e-05
2.22e-05
2.24e-05
2.26e-05
2.28e-05
2.29e-05
2.32e-05
2.33e-05
2.35e-05
2.37e-05
2.39e-05
2.41e-05
2.42e-05
2.45e-05
2.47e-05
2.48e-05
2.51e-05
2.53e-05
2.54e-05
2.57e-05
2.58e-05
2.61e-05
2.63e-05
2.65e-05
2.67e-05
2.69e-05
2.71e-05
2.73e-05
2.76e-05
2.77e-05
2.8e-05
2.82e-05
2.84e-05
2.87e-05
2.88e-05
2.91e-05
2.94e-05
2.95e-05
2.98e-05
3e-05
3.03e-05
3.05e-05
3.07e-05
3.1e-05
3.12e-05
3.14e-05
3.17e-05
3.19e-05
3.22e-05
3.25e-05
3.26e-05
3.3e-05
3.32e-05
3.34e-05
3.37e-05
3.4e-05
3.42e-05
3.45e-05
3.47e-05
3.5e-05
3.53e-05
3.56e-05
3.58e-05
3.61e-05
3.64e-05
3.66e-05
3.7e-05
3.72e-05
3.75e-05
3.78e-05
3.8e-05
3.84e-05
3.86e-05
3.9e-05
3.92e-05
3.95e-05
3.99e-05
4.01e-05
4.04e-05
4.08e-05
4.1e-05
4.14e-05
4.16e-05
4.2e-05
4.23e-05
4.26e-05
4.29e-05
4.32e-05
4.36e-05
4.39e-05
4.42e-05
4.45e-05
4.49e-05
4.52e-05
4.56e-05
4.59e-05
4.62e-05
4.65e-05
4.69e-05
4.73e-05
4.76e-05
4.79e-05
4.83e-05
4.87e-05
4.9e-05
4.94e-05
4.97e-05
5.01e-05
5.05e-05
5.08e-05
5.13e-05
5.15e-05
5.2e-05
5.23e-05
5.28e-05
5.31e-05
5.34e-05
5.39e-05
5.43e-05
5.46e-05
5.51e-05
5.54e-05
5.59e-05
5.63e-05
5.66e-05
5.71e-05
5.75e-05
5.78e-05
5.83e-05
5.88e-05
5.91e-05
5.96e-05
6e-05
6.04e-05
6.08e-05
6.13e-05
6.18e-05
6.21e-05
6.26e-05
6.31e-05
6.35e-05
6.39e-05
6.44e-05
6.48e-05
6.53e-05
6.58e-05
6.62e-05
6.67e-05
6.72e-05
6.76e-05
6.82e-05
6.85e-05
6.91e-05
6.96e-05
7e-05
7.05e-05
7.11e-05
7.15e-05
7.2e-05
7.25e-05
7.3e-05
7.35e-05
7.41e-05
7.45e-05
7.51e-05
7.56e-05
7.61e-05
7.66e-05
7.72e-05
7.76e-05
7.83e-05
7.87e-05
7.93e-05
7.99e-05
8.03e-05
8.1e-05
8.15e-05
8.2e-05
8.26e-05
8.32e-05
8.37e-05
8.43e-05
8.49e-05
8.54e-05
8.61e-05
8.66e-05
8.72e-05
8.78e-05
8.83e-05
8.9e-05
8.96e-05
9.02e-05
9.07e-05
9.14e-05
9.2e-05
9.26e-05
9.33e-05
9.38e-05
9.45e-05
9.51e-05
9.58e-05
9.64e-05
9.7e-05
9.76e-05
9.84e-05
9.89e-05
9.96e-05
0.0001003
0.000101
0.0001016
0.0001022
0.000103
0.0001036
0.0001043
0.000105
0.0001057
0.0001063
0.0001071
0.0001078
0.0001084
0.0001092
0.0001099
0.0001106
0.0001113
0.000112
0.0001128
0.0001135
0.0001142
0.000115
0.0001157
0.0001164
0.0001172
0.0001179
0.0001187
0.0001195
0.0001202
0.000121
0.0001218
0.0001226
0.0001233
0.0001241
0.0001249
0.0001257
0.0001265
0.0001273
0.0001281
0.0001289
0.0001298
0.0001305
0.0001314
0.0001322
0.000133
0.0001339
0.0001347
0.0001355
0.0001364
0.0001373
0.0001381
0.000139
0.0001398
0.0001407
0.0001416
0.0001424
0.0001434
0.0001442
0.0001451
0.000146
0.0001469
0.0001479
0.0001487
0.0001497
0.0001505
0.0001515
0.0001524
0.0001534
0.0001543
0.0001552
0.0001562
0.0001571
0.0001581
0.000159
0.00016
0.000161
0.000162
0.0001629
0.0001639
0.0001649
0.0001659
0.0001669
0.0001679
0.0001689
0.00017
0.0001709
0.000172
0.0001729
0.0001741
0.000175
0.0001761
0.0001772
0.0001782
0.0001792
0.0001803
0.0001814
0.0001825
0.0001835
0.0001846
0.0001857
0.0001868
0.0001879
0.0001889
0.0001901
0.0001912
0.0001924
0.0001934
0.0001946
0.0001957
0.0001968
0.000198
0.0001991
0.0002003
0.0002014
0.0002026
0.0002038
0.0002049
0.0002062
0.0002073
0.0002085
0.0002097
0.0002108
0.0002121
0.0002133
0.0002146
0.0002157
0.000217
0.0002182
0.0002194
0.0002207
0.0002219
0.0002232
0.0002244
0.0002257
0.000227
0.0002283
0.0002295
0.0002308
0.0002321
0.0002334
0.0002347
0.0002361
0.0002373
0.0002386
0.00024
0.0002413
0.0002426
0.000244
0.0002454
0.0002466
0.0002481
0.0002494
0.0002508
0.0002521
0.0002535
0.0002549
0.0002563
0.0002578
0.0002591
0.0002605
0.0002619
0.0002634
0.0002647
0.0002663
0.0002676
0.0002691
0.0002706
0.000272
0.0002734
0.0002749
0.0002764
0.0002779
0.0002794
0.0002808
0.0002824
0.0002838
0.0002854
0.0002869
0.0002884
0.0002899
0.0002914
0.000293
0.0002945
0.0002961
0.0002976
0.0002992
0.0003008
0.0003023
0.0003039
0.0003055
0.0003071
0.0003087
0.0003103
0.0003119
0.0003135
0.0003151
0.0003168
0.0003184
0.00032
0.0003217
0.0003233
0.000325
0.0003266
0.0003283
0.00033
0.0003317
0.0003333
0.000335
0.0003368
0.0003384
0.0003402
0.0003419
0.0003436
0.0003453
0.000347
0.0003488
0.0003506
0.0003523
0.0003541
0.0003558
0.0003576
0.0003594
0.0003611
0.000363
0.0003647
0.0003666
0.0003683
0.0003702
0.000372
0.0003738
0.0003757
0.0003775
0.0003793
0.0003812
0.000383
0.0003849
0.0003868
0.0003887
0.0003905
0.0003924
0.0003943
0.0003962
0.0003982
0.0004
0.000402
0.0004038
0.0004058
0.0004078
0.0004097
0.0004116
0.0004136
0.0004156
0.0004175
0.0004195
0.0004214
0.0004235
0.0004255
0.0004274
0.0004295
0.0004314
0.0004335
0.0004355
0.0004375
0.0004396
0.0004416
0.0004436
0.0004457
0.0004478
0.0004498
0.0004519
0.000454
0.0004561
0.0004581
0.0004602
0.0004624
0.0004644
0.0004666
0.0004687
0.0004708
0.0004729
0.0004751
0.0004772
0.0004793
0.0004815
0.0004837
0.0004859
0.000488
0.0004902
0.0004923
0.0004946
0.0004968
0.0004989
0.0005012
0.0005034
0.0005056
0.0005078
0.0005101
0.0005123
0.0005145
0.0005168
0.000519
0.0005213
0.0005236
0.0005258
0.0005282
0.0005304
0.0005326
0.000535
0.0005373
0.0005396
0.0005419
0.0005442
0.0005465
0.0005489
0.0005512
0.0005535
0.0005559
0.0005583
0.0005605
0.000563
0.0005653
0.0005677
0.0005701
0.0005724
0.0005749
0.0005772
0.0005796
0.0005821
0.0005844
0.0005869
0.0005893
0.0005917
0.0005941
0.0005966
0.000599
0.0006015
0.0006039
0.0006064
0.0006089
0.0006113
0.0006138
0.0006162
0.0006188
0.0006212
0.0006237
0.0006263
0.0006287
0.0006312
0.0006338
0.0006363
0.0006388
0.0006413
0.0006438
0.0006464
0.000649
0.0006515
0.000654
0.0006566
0.0006592
0.0006617
0.0006643
0.0006669
0.0006694
0.0006721
0.0006746
0.0006772
0.0006799
0.0006824
0.000685
0.0006877
0.0006902
0.0006929
0.0006955
0.0006982
0.0007007
0.0007035
0.000706
0.0007087
0.0007114
0.000714
0.0007167
0.0007193
0.000722
0.0007247
0.0007273
0.00073
0.0007327
0.0007354
0.0007381
0.0007408
0.0007435
0.0007462
0.0007488
0.0007516
0.0007544
0.000757
0.0007597
0.0007625
0.0007652
0.0007679
0.0007707
0.0007734
0.0007762
0.0007789
0.0007816
0.0007844
0.0007871
0.0007899
0.0007927
0.0007954
0.0007982
0.000801
0.0008037
0.0008066
0.0008093
0.000812
0.0008149
0.0008176
0.0008205
0.0008232
0.000826
0.0008289
0.0008316
0.0008344
0.0008373
0.00084
0.0008429
0.0008456
0.0008485
0.0008513
0.0008542
0.0008569
0.0008598
0.0008626
0.0008654
0.0008683
0.000871
0.000874
0.0008767
0.0008796
0.0008825
0.0008853
0.0008881
0.000891
0.0008938
0.0008966
0.0008996
0.0009023
0.0009052
0.0009081
0.0009109
0.0009138
0.0009167
0.0009195
0.0009223
0.0009253
0.0009281
0.0009309
0.0009338
0.0009367
0.0009396
0.0009424
0.0009453
0.0009481
0.000951
0.0009539
0.0009568
0.0009596
0.0009625
0.0009654
0.0009682
0.0009711
0.000974
0.0009769
0.0009797
0.0009826
0.0009855
0.0009883
0.0009912
0.0009941
0.000997
0.0009998
0.0010027
0.0010056
0.0010084
0.0010113
0.0010142
0.001017
0.00102
0.0010227
0.0010257
0.0010285
0.0010314
0.0010342
0.0010371
0.0010399
0.0010428
0.0010457
0.0010485
0.0010514
0.0010543
0.0010571
0.0010599
0.0010628
0.0010656
0.0010685
0.0010713
0.0010742
0.001077
0.0010798
0.0010827
0.0010855
0.0010884
0.0010912
0.001094
0.0010968
0.0010996
0.0011025
0.0011053
0.0011081
0.0011109
0.0011137
0.0011165
0.0011193
0.0011222
0.0011249
0.0011277
0.0011305
0.0011333
0.0011361
0.0011389
0.0011416
0.0011444
0.0011472
0.0011499
0.0011528
0.0011554
0.0011582
0.001161
0.0011638
0.0011664
0.0011692
0.001172
0.0011746
0.0011774
0.0011802
0.0011828
0.0011855
0.0011883
0.001191
0.0011936
0.0011964
0.001199
0.0012018
0.0012044
0.001207
0.0012098
0.0012124
0.0012151
0.0012177
0.0012204
0.001223
0.0012256
0.0012283
0.0012309
0.0012335
0.0012362
0.0012387
0.0012414
0.0012439
0.0012465
0.0012491
0.0012517
0.0012543
0.0012568
0.0012594
0.0012619
0.0012645
0.001267
0.0012695
0.0012721
0.0012745
0.0012771
0.0012796
0.0012821
0.0012845
0.0012871
0.0012895
0.001292
0.0012944
0.0012969
0.0012993
0.0013018
0.0013041
0.0013066
0.001309
0.0013115
0.0013138
0.0013161
0.0013186
0.0013209
0.0013233
0.0013257
0.0013279
0.0013304
0.0013326
0.001335
0.0013372
0.0013396
0.0013418
0.0013441
0.0013464
0.0013487
0.0013509
0.0013532
0.0013553
0.0013576
0.0013599
0.001362
0.0013642
0.0013664
0.0013685
0.0013708
0.0013728
0.0013751
0.0013771
0.0013793
0.0013814
0.0013835
0.0013855
0.0013877
0.0013897
0.0013918
0.0013938
0.0013959
0.0013979
0.0013998
0.0014019
0.0014039
0.0014059
0.0014078
0.0014098
0.0014117
0.0014137
0.0014156
0.0014175
0.0014194
0.0014212
0.0014232
0.001425
0.0014268
0.0014287
0.0014305
0.0014323
0.0014341
0.0014359
0.0014377
0.0014394
0.0014412
0.0014429
0.0014446
0.0014464
0.001448
0.0014497
0.0014514
0.001453
0.0014547
0.0014563
0.0014579
0.0014595
0.0014611
0.0014627
0.0014643
0.0014657
0.0014673
0.0014689
0.0014703
0.0014718
0.0014733
0.0014747
0.0014762
0.0014776
0.0014791
0.0014804
0.0014818
0.0014832
0.0014845
0.0014859
0.0014872
0.0014885
0.0014898
0.0014911
0.0014924
0.0014936
0.0014948
0.0014961
0.0014973
0.0014984
0.0014996
0.0015008
0.0015019
0.001503
0.0015042
0.0015052
0.0015063
0.0015074
0.0015084
0.0015094
0.0015104
0.0015115
0.0015124
0.0015133
0.0015143
0.0015153
0.0015161
0.001517
0.0015179
0.0015188
0.0015196
0.0015204
0.0015213
0.001522
0.0015228
0.0015235
0.0015243
0.001525
0.0015257
0.0015264
0.001527
0.0015277
0.0015284
0.0015289
0.0015295
0.0015301
0.0015307
0.0015312
0.0015317
0.0015323
0.0015327
0.0015332
0.0015336
0.001534
0.0015345
0.0015348
0.0015353
0.0015355
0.001536
0.0015362
0.0015365
0.0015368
0.0015371
0.0015373
0.0015375
0.0015378
0.0015379
0.001538
0.0015382
0.0015384
0.0015384
0
0.0015386
0.0015386
1
0.0015387
0.0015386
0.0015387
0.0015386
0.0015386
0
0.0015385
0.0015384
0.0015383
0.0015381
0.001538
0.0015379
0.0015376
0.0015374
0.0015372
0.0015369
0.0015367
0.0015363
0.0015361
0.0015357
0.0015353
0.001535
0.0015346
0.0015341
0.0015337
0.0015333
0.0015327
0.0015323
0.0015317
0.0015312
0.0015307
0.00153
0.0015294
0.0015288
0.0015282
0.0015274
0.0015268
0.0015261
0.0015253
0.0015246
0.0015238
0.001523
0.0015222
0.0015213
0.0015205
0.0015196
0.0015186
0.0015178
0.0015168
0.0015158
0.0015148
0.0015138
0.0015128
0.0015117
0.0015107
0.0015095
0.0015084
0.0015073
0.0015061
0.0015049
0.0015037
0.0015024
0.0015012
0.0014999
0.0014986
0.0014973
0.001496
0.0014946
0.0014931
0.0014918
0.0014904
0.0014889
0.0014874
0.0014859
0.0014844
0.0014828
0.0014813
0.0014797
0.0014781
0.0014764
0.0014748
0.0014731
0.0014714
0.0014697
0.0014679
0.0014662
0.0014643
0.0014626
0.0014607
0.0014589
0.001457
0.001455
0.0014532
0.0014512
0.0014492
0.0014473
0.0014452
0.0014432
0.0014411
0.0014391
0.0014369
0.0014348
0.0014327
0.0014305
0.0014282
0.0014261
0.0014238
0.0014216
0.0014193
0.001417
0.0014146
0.0014123
0.0014099
0.0014075
0.0014051
0.0014026
0.0014002
0.0013977
0.0013952
0.0013926
0.0013901
0.0013875
0.0013849
0.0013823
0.0013796
0.001377
0.0013743
0.0013716
0.0013688
0.0013661
0.0013632
0.0013605
0.0013577
0.0013548
0.001352
0.001349
0.0013462
0.0013432
0.0013402
0.0013373
0.0013343
0.0013312
0.0013282
0.0013251
0.001322
0.001319
0.0013157
0.0013127
0.0013094
0.0013063
0.001303
0.0012998
0.0012965
0.0012932
0.0012899
0.0012866
0.0012832
0.0012799
0.0012764
0.0012731
0.0012696
0.0012661
0.0012627
0.0012591
0.0012556
0.0012521
0.0012485
0.0012449
0.0012413
0.0012376
0.0012341
0.0012303
0.0012266
0.0012229
0.0012192
0.0012154
0.0012117
0.0012078
0.001204
0.0012002
0.0011963
0.0011924
0.0011885
0.0011846
0.0011806
0.0011767
0.0011726
0.0011687
0.0011646
0.0011606
0.0011565
0.0011525
0.0011483
0.0011441
0.0011401
0.0011358
0.0011317
0.0011275
0.0011232
0.0011189
0.0011147
0.0011104
0.0011061
0.0011018
0.0010974
0.0010931
0.0010886
0.0010843
0.0010798
0.0010754
0.0010709
0.0010664
0.0010619
0.0010574
0.0010529
0.0010483
0.0010437
0.0010391
0.0010345
0.0010299
0.0010252
0.0010205
0.0010158
0.0010112
0.0010064
0.0010016
0.0009969
0.0009921
0.0009873
0.0009825
0.0009777
0.0009728
0.0009679
0.0009631
0.0009581
0.0009532
0.0009483
0.0009433
0.0009383
0.0009334
0.0009283
0.0009233
0.0009182
0.0009132
0.0009082
0.000903
0.0008979
0.0008928
0.0008876
0.0008825
0.0008773
0.0008721
0.0008669
0.0008617
0.0008564
0.0008512
0.0008459
0.0008407
0.0008353
0.00083
0.0008246
0.0008194
0.0008139
0.0008086
0.0008032
0.0007977
0.0007924
0.0007869
0.0007814
0.000776
0.0007705
0.000765
0.0007595
0.0007539
0.0007485
0.0007428
0.0007373
0.0007317
0.0007262
0.0007205
0.0007149
0.0007092
0.0007036
0.000698
0.0006922
0.0006866
0.0006809
0.0006752
0.0006694
0.0006637
0.0006579
0.0006522
0.0006464
0.0006407
0.0006348
0.000629
0.0006231
0.0006174
0.0006115
0.0006056
0.0005998
0.0005939
0.0005879
0.0005821
0.0005762
0.0005702
0.0005643
0.0005584
0.0005524
0.0005464
0.0005404
0.0005345
0.0005284
0.0005225
0.0005164
0.0005104
0.0005043
0.0004983
0.0004923
0.0004861
0.0004801
0.000474
0.000468
0.0004618
0.0004557
0.0004495
0.0004435
0.0004373
0.0004311
0.000425
0.0004189
0.0004126
0.0004065
0.0004003
0.0003941
0.0003879
0.0003817
0.0003755
0.0003692
0.000363
0.0003568
0.0003505
0.0003443
0.000338
0.0003318
0.0003254
0.0003192
0.000313
0.0003066
0.0003003
0.000294
0.0002878
0.0002814
0.000275
0.0002688
0.0002624
0.0002561
0.0002498
0.0002434
0.0002371
0.0002307
0.0002244
0.000218
0.0002116
0.0002053
0.0001988
0.0001925
0.0001862
0.0001797
0.0001734
0.0001669
0.0001606
0.0001542
0.0001477
0.0001414
0.0001349
0.0001286
0.0001221
0.0001157
0.0001093
0.0001029
9.65e-05
9e-05
8.37e-05
7.71e-05
7.08e-05
6.43e-05
5.79e-05
5.15e-05
4.51e-05
3.86e-05
3.21e-05
2.58e-05
1.93e-05
1.29e-05
6.4e-06
0
-6.4e-06
-1.29e-05
-1.93e-05
-2.58e-05
-3.21e-05
-3.86e-05
-4.51e-05
-5.15e-05
-5.79e-05
-6.43e-05
-7.08e-05
-7.71e-05
-8.37e-05
-9e-05
-9.65e-05
-0.0001029
-0.0001093
-0.0001157
-0.0001221
-0.0001286
-0.0001349
-0.0001414
-0.0001477
-0.0001542
-0.0001606
-0.0001669
-0.0001734
-0.0001797
-0.0001862
-0.0001925
-0.0001988
-0.0002053
-0.0002116
-0.000218
-0.0002244
-0.0002307
-0.0002371
-0.0002434
-0.0002498
-0.0002561
-0.0002624
-0.0002688
-0.000275
-0.0002814
-0.0002878
-0.000294
-0.0003003
-0.0003066
-0.000313
-0.0003192
-0.0003254
-0.0003318
-0.000338
-0.0003443
-0.0003505
-0.0003568
-0.000363
-0.0003692
-0.0003755
-0.0003817
-0.0003879
-0.0003941
-0.0004003
-0.0004065
-0.0004126
-0.0004189
-0.000425
-0.0004311
-0.0004373
-0.0004435
-0.0004495
-0.0004557
-0.0004618
-0.000468
-0.000474
-0.0004801
-0.0004861
-0.0004923
-0.0004983
-0.0005043
-0.0005104
-0.0005164
-0.0005225
-0.0005284
-0.0005345
-0.0005404
-0.0005464
-0.0005524
-0.0005584
-0.0005643
-0.0005702
-0.0005762
-0.0005821
-0.0005879
-0.0005939
-0.0005998
-0.0006056
-0.0006115
-0.0006174
-0.0006231
-0.000629
-0.0006348
-0.0006407
-0.0006464
-0.0006522
-0.0006579
-0.0006637
-0.0006694
-0.0006752
-0.0006809
-0.0006866
-0.0006922
-0.000698
-0.0007036
-0.0007092
-0.0007149
-0.0007205
-0.0007262
-0.0007317
-0.0007373
-0.0007428
-0.0007485
-0.0007539
-0.0007595
-0.000765
-0.0007705
-0.000776
-0.0007814
-0.0007869
-0.0007924
-0.0007977
-0.0008032
-0.0008086
-0.0008139
-0.0008194
-0.0008246
-0.00083
-0.0008353
-0.0008407
-0.0008459
-0.0008512
-0.0008564
-0.0008617
-0.0008669
-0.0008721
-0.0008773
-0.0008825
-0.0008876
-0.0008928
-0.0008979
-0.000903
-0.0009082
-0.0009132
-0.0009182
-0.0009233
-0.0009283
-0.0009334
-0.0009383
-0.0009433
-0.0009483
-0.0009532
-0.0009581
-0.0009631
-0.0009679
-0.0009728
-0.0009777
-0.0009825
-0.0009873
-0.0009921
-0.0009969
-0.0010016
-0.0010064
-0.0010112
-0.0010158
-0.0010205
-0.0010252
-0.0010299
-0.0010345
-0.0010391
-0.0010437
-0.0010483
-0.0010529
-0.0010574
-0.0010619
-0.0010664
-0.0010709
-0.0010754
-0.0010798
-0.0010843
-0.0010886
-0.0010931
-0.0010974
-0.0011018
-0.0011061
-0.0011104
-0.0011147
-0.0011189
-0.0011232
-0.0011275
-0.0011317
-0.0011358
-0.0011401
-0.0011441
-0.0011483
-0.0011525
-0.0011565
-0.0011606
-0.0011646
-0.0011687
-0.0011726
-0.0011767
-0.0011806
-0.0011846
-0.0011885
-0.0011924
-0.0011963
-0.0012002
-0.001204
-0.0012078
-0.0012117
-0.0012154
-0.0012192
-0.0012229
-0.0012266
-0.0012303
-0.0012341
-0.0012376
-0.0012413
-0.0012449
-0.0012485
-0.0012521
-0.0012556
-0.0012591
-0.0012627
-0.0012661
-0.0012696
-0.0012731
-0.0012764
-0.0012799
-0.0012832
-0.0012866
-0.0012899
-0.0012932
-0.0012965
-0.0012998
-0.001303
-0.0013063
-0.0013094
-0.0013127
-0.0013157
-0.001319
-0.001322
-0.0013251
-0.0013282
-0.0013312
-0.0013343
-0.0013373
-0.0013402
-0.0013432
-0.0013462
-0.001349
-0.001352
-0.0013548
-0.0013577
-0.0013605
-0.0013632
-0.0013661
-0.0013688
-0.0013716
-0.0013743
-0.001377
-0.0013796
-0.0013823
-0.0013849
-0.0013875
-0.0013901
-0.0013926
-0.0013952
-0.0013977
-0.0014002
-0.0014026
-0.0014051
-0.0014075
-0.0014099
-0.0014123
-0.0014146
-0.001417
-0.0014193
-0.0014216
-0.0014238
-0.0014261
-0.0014282
-0.0014305
-0.0014327
-0.0014348
-0.0014369
-0.0014391
-0.0014411
-0.0014432
-0.0014452
-0.0014473
-0.0014492
-0.0014512
-0.0014532
-0.001455
-0.001457
-0.0014589
-0.0014607
-0.0014626
-0.0014643
-0.0014662
-0.0014679
-0.0014697
-0.0014714
-0.0014731
-0.0014748
-0.0014764
-0.0014781
-0.0014797
-0.0014813
-0.0014828
-0.0014844
-0.0014859
-0.0014874
-0.0014889
-0.0014904
-0.0014918
-0.0014931
-0.0014946
-0.001496
-0.0014973
-0.0014986
-0.0014999
-0.0015012
-0.0015024
-0.0015037
-0.0015049
-0.0015061
-0.0015073
-0.0015084
-0.0015095
-0.0015107
-0.0015117
-0.0015128
-0.0015138
-0.0015148
-0.0015158
-0.0015168
-0.0015178
-0.0015186
-0.0015196
-0.0015205
-0.0015213
-0.0015222
-0.001523
-0.0015238
-0.0015246
-0.0015253
-0.0015261
-0.0015268
-0.0015274
-0.0015282
-0.0015288
-0.0015294
-0.00153
-0.0015307
-0.0015312
-0.0015317
-0.0015323
-0.0015327
-0.0015333
-0.0015337
-0.0015341
-0.0015346
-0.001535
-0.0015353
-0.0015357
-0.0015361
-0.0015363
-0.0015367
-0.0015369
-0.0015372
-0.0015374
-0.0015376
-0.0015379
-0.001538
-0.0015381
-0.0015383
-0.0015384
-0.0015385
-0.0015386
-0.0015386
0
-0.0015387
-0.0015386
-0.0015387
-0.0015386
-0.0015386
1
-0.0015384
-0.0015384
0
-0.0015382
-0.001538
-0.0015379
-0.0015378
-0.0015375
-0.0015373
-0.0015371
-0.0015368
-0.0015365
-0.0015362
-0.001536
-0.0015355
-0.0015353
-0.0015348
-0.0015345
-0.001534
-0.0015336
-0.0015332
-0.0015327
-0.0015323
-0.0015317
-0.0015312
-0.0015307
-0.0015301
-0.0015295
-0.0015289
-0.0015284
-0.0015277
-0.001527
-0.0015264
-0.0015257
-0.001525
-0.0015243
-0.0015235
-0.0015228
-0.001522
-0.0015213
-0.0015204
-0.0015196
-0.0015188
-0.0015179
-0.001517
-0.0015161
-0.0015153
-0.0015143
-0.0015133
-0.0015124
-0.0015115
-0.0015104
-0.0015094
-0.0015084
-0.0015074
-0.0015063
-0.0015052
-0.0015042
-0.001503
-0.0015019
-0.0015008
-0.0014996
-0.0014984
-0.0014973
-0.0014961
-0.0014948
-0.0014936
-0.0014924
-0.0014911
-0.0014898
-0.0014885
-0.0014872
-0.0014859
-0.0014845
-0.0014832
-0.0014818
-0.0014804
-0.0014791
-0.0014776
-0.0014762
-0.0014747
-0.0014733
-0.0014718
-0.0014703
-0.0014689
-0.0014673
-0.0014657
-0.0014643
-0.0014627
-0.0014611
-0.0014595
-0.0014579
-0.0014563
-0.0014547
-0.001453
-0.0014514
-0.0014497
-0.001448
-0.0014464
-0.0014446
-0.0014429
-0.0014412
-0.0014394
-0.0014377
-0.0014359
-0.0014341
-0.0014323
-0.0014305
-0.0014287
-0.0014268
-0.001425
-0.0014232
-0.0014212
-0.0014194
-0.0014175
-0.0014156
-0.0014137
-0.0014117
-0.0014098
-0.0014078
-0.0014059
-0.0014039
-0.0014019
-0.0013998
-0.0013979
-0.0013959
-0.0013938
-0.0013918
-0.0013897
-0.0013877
-0.0013855
-0.0013835
-0.0013814
-0.0013793
-0.0013771
-0.0013751
-0.0013728
-0.0013708
-0.0013685
-0.0013664
-0.0013642
-0.001362
-0.0013599
-0.0013576
-0.0013553
-0.0013532
-0.0013509
-0.0013487
-0.0013464
-0.0013441
-0.0013418
-0.0013396
-0.0013372
-0.001335
-0.0013326
-0.0013304
-0.0013279
-0.0013257
-0.0013233
-0.0013209
-0.0013186
-0.0013161
-0.0013138
-0.0013115
-0.001309
-0.0013066
-0.0013041
-0.0013018
-0.0012993
-0.0012969
-0.0012944
-0.001292
-0.0012895
-0.0012871
-0.0012845
-0.0012821
-0.0012796
-0.0012771
-0.0012745
-0.0012721
-0.0012695
-0.001267
-0.0012645
-0.0012619
-0.0012594
-0.0012568
-0.0012543
-0.0012517
-0.0012491
-0.0012465
-0.0012439
-0.0012414
-0.0012387
-0.0012362
-0.0012335
-0.0012309
-0.0012283
-0.0012256
-0.001223
-0.0012204
-0.0012177
-0.0012151
-0.0012124
-0.0012098
-0.001207
-0.0012044
-0.0012018
-0.001199
-0.0011964
-0.0011936
-0.001191
-0.0011883
-0.0011855
-0.0011828
-0.0011802
-0.0011774
-0.0011746
-0.001172
-0.0011692
-0.0011664
-0.0011638
-0.001161
-0.0011582
-0.0011554
-0.0011528
-0.0011499
-0.0011472
-0.0011444
-0.0011416
-0.0011389
-0.0011361
-0.0011333
-0.0011305
-0.0011277
-0.0011249
-0.0011222
-0.0011193
-0.0011165
-0.0011137
-0.0011109
-0.0011081
-0.0011053
-0.0011025
-0.0010996
-0.0010968
-0.001094
-0.0010912
-0.0010884
-0.0010855
-0.0010827
-0.0010798
-0.001077
-0.0010742
-0.0010713
-0.0010685
-0.0010656
-0.0010628
-0.0010599
-0.0010571
-0.0010543
-0.0010514
-0.0010485
-0.0010457
-0.0010428
-0.0010399
-0.0010371
-0.0010342
-0.0010314
-0.0010285
-0.0010257
-0.0010227
-0.00102
-0.001017
-0.0010142
-0.0010113
-0.0010084
-0.0010056
-0.0010027
-0.0009998
-0.000997
-0.0009941
-0.0009912
-0.0009883
-0.0009855
-0.0009826
-0.0009797
-0.0009769
-0.000974
-0.0009711
-0.0009682
-0.0009654
-0.0009625
-0.0009596
-0.0009568
-0.0009539
-0.000951
-0.0009481
-0.0009453
-0.0009424
-0.0009396
-0.0009367
-0.0009338
-0.0009309
-0.0009281
-0.0009253
-0.0009223
-0.0009195
-0.0009167
-0.0009138
-0.0009109
-0.0009081
-0.0009052
-0.0009023
-0.0008996
-0.0008966
-0.0008938
-0.000891
-0.0008881
-0.0008853
-0.0008825
-0.0008796
-0.0008767
-0.000874
-0.000871
-0.0008683
-0.0008654
-0.0008626
-0.0008598
-0.0008569
-0.0008542
-0.0008513
-0.0008485
-0.0008456
-0.0008429
-0.00084
-0.0008373
-0.0008344
-0.0008316
-0.0008289
-0.000826
-0.0008232
-0.0008205
-0.0008176
-0.0008149
-0.000812
-0.0008093
-0.0008066
-0.0008037
-0.000801
-0.0007982
-0.0007954
-0.0007927
-0.0007899
-0.0007871
-0.0007844
-0.0007816
-0.0007789
-0.0007762
-0.0007734
-0.0007707
-0.0007679
-0.0007652
-0.0007625
-0.0007597
-0.000757
-0.0007544
-0.0007516
-0.0007488
-0.0007462
-0.0007435
-0.0007408
-0.0007381
-0.0007354
-0.0007327
-0.00073
-0.0007273
-0.0007247
-0.000722
-0.0007193
-0.0007167
-0.000714
-0.0007114
-0.0007087
-0.000706
-0.0007035
-0.0007007
-0.0006982
-0.0006955
-0.0006929
-0.0006902
-0.0006877
-0.000685
-0.0006824
-0.0006799
-0.0006772
-0.0006746
-0.0006721
-0.0006694
-0.0006669
-0.0006643
-0.0006617
-0.0006592
-0.0006566
-0.000654
-0.0006515
-0.000649
-0.0006464
-0.0006438
-0.0006413
-0.0006388
-0.0006363
-0.0006338
-0.0006312
-0.0006287
-0.0006263
-0.0006237
-0.0006212
-0.0006188
-0.0006162
-0.0006138
-0.0006113
-0.0006089
-0.0006064
-0.0006039
-0.0006015
-0.000599
-0.0005966
-0.0005941
-0.0005917
-0.0005893
-0.0005869
-0.0005844
-0.0005821
-0.0005796
-0.0005772
-0.0005749
-0.0005724
-0.0005701
-0.0005677
-0.0005653
-0.000563
-0.0005605
-0.0005583
-0.0005559
-0.0005535
-0.0005512
-0.0005489
-0.0005465
-0.0005442
-0.0005419
-0.0005396
-0.0005373
-0.000535
-0.0005326
-0.0005304
-0.0005282
-0.0005258
-0.0005236
-0.0005213
-0.000519
-0.0005168
-0.0005145
-0.0005123
-0.0005101
-0.0005078
-0.0005056
-0.0005034
-0.0005012
-0.0004989
-0.0004968
-0.0004946
-0.0004923
-0.0004902
-0.000488
-0.0004859
-0.0004837
-0.0004815
-0.0004793
-0.0004772
-0.0004751
-0.0004729
-0.0004708
-0.0004687
-0.0004666
-0.0004644
-0.0004624
-0.0004602
-0.0004581
-0.0004561
-0.000454
-0.0004519
-0.0004498
-0.0004478
-0.0004457
-0.0004436
-0.0004416
-0.0004396
-0.0004375
-0.0004355
-0.0004335
-0.0004314
-0.0004295
-0.0004274
-0.0004255
-0.0004235
-0.0004214
-0.0004195
-0.0004175
-0.0004156
-0.0004136
-0.0004116
-0.0004097
-0.0004078
-0.0004058
-0.0004038
-0.000402
-0.0004
-0.0003982
-0.0003962
-0.0003943
-0.0003924
-0.0003905
-0.0003887
-0.0003868
-0.0003849
-0.000383
-0.0003812
-0.0003793
-0.0003775
-0.0003757
-0.0003738
-0.000372
-0.0003702
-0.0003683
-0.0003666
-0.0003647
-0.000363
-0.0003611
-0.0003594
-0.0003576
-0.0003558
-0.0003541
-0.0003523
-0.0003506
-0.0003488
-0.000347
-0.0003453
-0.0003436
-0.0003419
-0.0003402
-0.0003384
-0.0003368
-0.000335
-0.0003333
-0.0003317
-0.00033
-0.0003283
-0.0003266
-0.000325
-0.0003233
-0.0003217
-0.00032
-0.0003184
-0.0003168
-0.0003151
-0.0003135
-0.0003119
-0.0003103
-0.0003087
-0.0003071
-0.0003055
-0.0003039
-0.0003023
-0.0003008
-0.0002992
-0.0002976
-0.0002961
-0.0002945
-0.000293
-0.0002914
-0.0002899
-0.0002884
-0.0002869
-0.0002854
-0.0002838
-0.0002824
-0.0002808
-0.0002794
-0.0002779
-0.0002764
-0.0002749
-0.0002734
-0.000272
-0.0002706
-0.0002691
-0.0002676
-0.0002663
-0.0002647
-0.0002634
-0.0002619
-0.0002605
-0.0002591
-0.0002578
-0.0002563
-0.0002549
-0.0002535
-0.0002521
-0.0002508
-0.0002494
-0.0002481
-0.0002466
-0.0002454
-0.000244
-0.0002426
-0.0002413
-0.00024
-0.0002386
-0.0002373
-0.0002361
-0.0002347
-0.0002334
-0.0002321
-0.0002308
-0.0002295
-0.0002283
-0.000227
-0.0002257
-0.0002244
-0.0002232
-0.0002219
-0.0002207
-0.0002194
